0.029000  18
0.029300  17
0.029800  31
0.030400  47
0.030500  24
0.030600  12
0.030700  1
0.030700  32
0.030700  40
0.031500  15
0.031700  4
0.033700  35
0.034200  33
0.034200  34
0.035400  39
0.035800  26
0.035800  30
0.036100  7
0.036600  6
0.038600  9
0.038600  11
0.038700  27
0.038700  31
0.039100  22
0.039200  2
0.039300  5
0.039300  29
0.039600  44
0.040100  0
0.040400  49
0.041700  40
0.041800  12
0.046200  4
0.046700  14
0.046800  30
0.046900  35
0.047100  15
0.048300  13
0.050600  34
0.050800  8
0.052400  22
0.053200  6
0.053200  44
0.053300  38
0.053900  42
0.054000  40
0.055400  30
0.055700  31
0.056600  11
0.056600  12
0.056900  49
0.057400  24
0.057500  39
0.057600  48
0.058200  26
0.058400  9
0.059300  27
0.059400  23
0.059600  35
0.060600  15
0.061200  5
0.061500  4
0.061700  0
0.061700  7
0.061800  13
0.061800  14
0.062600  18
0.062600  32
0.063100  20
0.063200  33
0.063200  40
0.064100  25
0.064400  22
0.067200  11
0.067500  12
0.069100  6
0.069100  30
0.069900  44
0.070100  0
0.070300  42
0.071200  21
0.071900  31
0.072200  15
0.073000  16
0.073200  9
0.076300  39
0.076400  7
0.076700  46
0.076900  17
0.077000  2
0.077000  26
0.077300  4
0.077400  38
0.077600  47
0.078100  44
0.078300  40
0.078500  35
0.079900  49
0.080200  13
0.080300  30
0.081400  27
0.081500  11
0.082000  45
0.082100  8
0.082600  36
0.083300  14
0.084000  40
0.085200  2
0.085400  0
0.085500  9
0.085800  12
0.086000  39
0.086100  22
0.088600  5
0.089200  42
0.090400  30
0.090800  49
0.091000  31
0.091300  15
0.091700  23
0.092300  13
0.092800  16
0.093300  33
0.093300  40
0.093500  26
0.093600  4
0.094000  35
0.094700  6
0.094900  11
0.095100  24
0.096600  32
0.097100  14
0.097700  8
0.098200  34
0.098300  17
0.098700  4
0.098800  38
0.098800  47
0.099000  3
0.099000  7
0.099100  12
0.099500  20
0.099600  44
0.099900  18
0.100600  0
0.103000  15
0.103400  9
0.103500  5
0.104300  27
0.105400  31
0.105600  35
0.105900  26
0.105900  42
0.106000  30
0.106100  6
0.106100  39
0.106300  1
0.106900  13
0.106900  45
0.107400  16
0.107400  18
0.107700  14
0.110000  22
0.111900  12
0.112800  32
0.113100  11
0.113400  40
0.113900  26
0.115400  0
0.116700  23
0.117000  28
0.118900  10
0.119400  35
0.119400  49
0.119500  31
0.119500  40
0.119600  6
0.119700  33
0.120000  5
0.121300  30
0.122900  17
0.124600  44
0.126200  8
0.127000  13
0.127400  4
0.127600  9
0.127600  15
0.128000  25
0.128100  20
0.128200  47
0.128500  18
0.129500  22
0.129900  24
0.130800  26
0.132000  39
0.132100  11
0.132100  12
0.132300  40
0.133100  30
0.133100  34
0.133300  35
0.134000  14
0.134000  32
0.135500  27
0.135600  45
0.136100  0
0.136400  7
0.136800  44
0.137300  23
0.137500  6
0.137600  16
0.137600  31
0.137600  47
0.138600  12
0.139100  49
0.139800  40
0.141200  4
0.142500  39
0.142800  38
0.143400  24
0.143500  11
0.143700  8
0.143900  21
0.144000  13
0.144000  22
0.145500  3
0.146300  35
0.146800  18
0.147300  7
0.147500  15
0.147700  2
0.148200  25
0.148700  30
0.148700  44
0.150500  6
0.150600  9
0.153800  5
0.153800  28
0.154200  40
0.154400  27
0.154800  7
0.155300  12
0.155800  16
0.156000  20
0.156200  0
0.156500  49
0.157000  4
0.157100  22
0.158700  11
0.160400  15
0.160700  26
0.162600  35
0.162900  30
0.163100  13
0.163200  42
0.163500  14
0.163900  39
0.164200  18
0.165100  12
0.165200  9
0.166100  43
0.166500  40
0.166600  31
0.167500  33
0.169000  49
0.169500  1
0.169600  44
0.170200  15
0.170300  22
0.170600  38
0.170700  23
0.171900  4
0.172300  6
0.173000  40
0.173100  5
0.175400  32
0.175700  35
0.176200  0
0.177100  24
0.177900  17
0.177900  18
0.178100  21
0.178500  11
0.179100  7
0.180000  20
0.180600  16
0.181200  26
0.181600  27
0.182200  8
0.182200  44
0.182500  30
0.182600  12
0.182600  47
0.182800  15
0.183800  42
0.184000  40
0.184500  4
0.184700  9
0.185100  34
0.185800  6
0.185900  14
0.186100  22
0.186200  13
0.188300  39
0.190000  49
0.190300  45
0.190500  11
0.191000  31
0.191100  35
0.192100  30
0.193100  32
0.195200  6
0.195800  24
0.196100  40
0.196200  29
0.196400  18
0.196400  22
0.196600  4
0.196900  9
0.197000  0
0.197400  47
0.197600  7
0.197800  8
0.197900  10
0.198800  2
0.199200  27
0.199900  23
0.200500  12
0.200600  26
0.200800  5
0.201700  11
0.202100  13
0.203200  17
0.203600  30
0.204100  15
0.204300  20
0.205200  22
0.205500  14
0.205500  43
0.206400  44
0.206700  38
0.207600  4
0.207600  28
0.208100  31
0.208200  9
0.209100  40
0.210700  16
0.211400  8
0.211400  24
0.211700  32
0.212100  37
0.213200  42
0.214500  35
0.216500  23
0.216500  30
0.216800  12
0.217300  5
0.218200  11
0.218300  49
0.218900  6
0.220600  22
0.220600  39
0.220900  15
0.221400  47
0.221800  14
0.222300  7
0.222400  18
0.222600  28
0.224300  40
0.225500  0
0.226000  4
0.227100  35
0.227300  13
0.227600  17
0.227700  34
0.228300  20
0.228500  8
0.228600  44
0.229400  9
0.229400  12
0.230200  26
0.230500  11
0.233900  6
0.234500  30
0.234700  16
0.234700  40
0.235100  27
0.235800  14
0.235900  1
0.235900  22
0.236100  31
0.236600  15
0.237100  21
0.238400  7
0.239100  0
0.239600  23
0.239900  24
0.240000  35
0.240000  39
0.240600  42
0.240700  32
0.240800  18
0.242400  4
0.242400  45
0.242700  40
0.242800  44
0.242900  11
0.243800  5
0.244500  13
0.244500  16
0.245700  30
0.246100  8
0.247700  28
0.249100  14
0.249300  29
0.249300  33
0.249400  31
0.251900  15
0.252200  0
0.252300  9
0.252800  2
0.252800  6
0.253000  12
0.254500  22
0.254700  13
0.254700  39
0.254900  27
0.255600  30
0.256100  23
0.257100  49
0.258700  40
0.259200  47
0.259400  32
0.259600  26
0.259700  14
0.260700  4
0.260800  12
0.260800  20
0.264300  17
0.264400  35
0.264900  44
0.265000  24
0.265300  22
0.265400  11
0.265600  15
0.265900  7
0.266000  13
0.266300  38
0.266800  6
0.267100  0
0.267800  40
0.268100  18
0.268200  30
0.270400  25
0.271500  8
0.271900  9
0.272900  34
0.274000  31
0.274100  12
0.274600  2
0.274600  15
0.276300  44
0.277100  35
0.277500  22
0.278800  4
0.279100  11
0.279500  40
0.280100  1
0.280600  16
0.280700  5
0.280700  30
0.281400  14
0.281700  32
0.282600  31
0.283100  27
0.283600  21
0.283900  42
0.287100  40
0.287800  39
0.288900  13
0.289800  0
0.290100  12
0.290100  23
0.290300  4
0.290400  5
0.290800  15
0.291000  6
0.291000  11
0.291500  22
0.291600  24
0.291800  38
0.293300  26
0.293400  18
0.293600  28
0.294800  49
0.295200  34
0.296200  8
0.296300  30
0.296500  9
0.296600  37
0.297600  20
0.298600  6
0.299000  14
0.300100  35
0.301000  12
0.301200  40
0.302700  4
0.303000  32
0.303300  11
0.305300  41
0.306300  45
0.306400  33
0.307200  15
0.308900  7
0.309100  13
0.309100  30
0.309300  35
0.310300  44
0.311000  22
0.311100  17
0.311600  18
0.312100  9
0.312500  20
0.312500  42
0.312600  31
0.312900  26
0.313400  16
0.313700  27
0.313700  39
0.314800  12
0.315100  38
0.315100  47
0.315400  11
0.316300  5
0.316600  49
0.317500  32
0.318100  6
0.318800  35
0.320100  40
0.320400  15
0.321500  0
0.322400  1
0.322400  34
0.323000  4
0.324200  8
0.325700  39
0.326600  44
0.329400  30
0.329800  31
0.330500  14
0.331400  2
0.331500  49
0.332400  18
0.333000  6
0.333200  12
0.333200  22
0.333600  26
0.333800  11
0.333800  40
0.334100  15
0.335300  27
0.335800  33
0.336300  7
0.336400  8
0.337600  16
0.338300  13
0.339100  9
0.341200  0
0.341200  30
0.341300  4
0.341300  42
0.341600  39
0.343800  35
0.344100  31
0.344700  28
0.344700  32
0.344900  24
0.345200  44
0.345300  14
0.345500  40
0.347800  17
0.348000  22
0.348200  49
0.348500  11
0.349000  12
0.349200  5
0.349300  7
0.349600  25
0.350500  20
0.351100  34
0.352100  40
0.352400  15
0.352600  4
0.353000  27
0.353000  38
0.353300  30
0.353400  26
0.353400  32
0.357100  6
0.357300  31
0.357800  9
0.357800  35
0.357900  14
0.358700  0
0.358700  44
0.358800  42
0.359800  39
0.360200  22
0.362900  18
0.363300  11
0.363600  6
0.364100  8
0.364100  12
0.364500  40
0.365000  30
0.366400  21
0.367200  13
0.367400  3
0.368700  4
0.368900  38
0.369200  5
0.369500  29
0.370100  28
0.370200  15
0.370400  47
0.370600  20
0.370800  39
0.372500  10
0.373000  24
0.374300  31
0.374700  26
0.374700  32
0.374800  40
0.375700  35
0.376600  11
0.377600  6
0.378800  14
0.378800  44
0.379000  13
0.379100  12
0.379200  23
0.379800  0
0.379900  5
0.379900  8
0.380300  22
0.380300  30
0.380500  27
0.382000  15
0.382500  42
0.382900  16
0.383700  33
0.383800  2
0.383800  7
0.384800  9
0.384900  40
0.386600  18
0.387100  20
0.388100  44
0.388500  26
0.388900  49
0.390000  32
0.391000  11
0.391900  40
0.393500  35
0.393600  4
0.393700  30
0.393800  0
0.394400  34
0.395300  31
0.397200  15
0.397200  28
0.397800  6
0.398700  5
0.399500  22
0.399600  27
0.399600  42
0.400400  7
0.400700  26
0.400700  39
0.401800  40
0.402500  4
0.403100  20
0.403400  8
0.403400  12
0.403400  31
0.403400  48
0.403500  14
0.403700  25
0.403900  44
0.404100  0
0.404200  11
0.404300  47
0.407100  9
0.407200  21
0.407200  32
0.407200  38
0.409200  16
0.410800  13
0.411000  44
0.412000  31
0.412300  22
0.412500  15
0.412700  30
0.414900  40
0.415100  11
0.415300  6
0.415700  35
0.416600  12
0.416900  8
0.417100  9
0.417900  17
0.418300  39
0.421100  14
0.421600  2
0.421900  34
0.422400  30
0.422700  18
0.427700  49
0.427800  16
0.427800  22
0.428100  20
0.428400  4
0.429100  15
0.429900  25
0.430100  3
0.430100  40
0.430300  11
0.430300  21
0.430700  32
0.430800  45
0.432600  27
0.432900  0
0.433000  35
0.433100  12
0.433500  14
0.433500  44
0.433600  23
0.433700  7
0.434300  1
0.435900  26
0.436000  39
0.437000  5
0.437500  38
0.437600  9
0.438000  40
0.439000  31
0.439400  13
0.440300  30
0.442500  6
0.442600  15
0.443300  22
0.443900  4
0.444400  0
0.444400  28
0.444600  42
0.444800  33
0.444800  34
0.445300  24
0.446700  47
0.447500  20
0.448100  12
0.448900  11
0.449000  31
0.449800  40
0.452400  35
0.452500  18
0.453400  37
0.454100  30
0.454200  5
0.454300  8
0.454300  29
0.455400  4
0.455400  46
0.457500  32
0.458000  16
0.458100  31
0.458300  27
0.458500  0
0.459700  24
0.460100  15
0.460200  9
0.460400  10
0.460600  17
0.460700  43
0.460900  14
0.461100  25
0.461700  6
0.461900  42
0.462600  7
0.463200  44
0.464400  40
0.465200  22
0.465300  23
0.465700  49
0.466000  18
0.466700  11
0.466700  30
0.467500  12
0.469800  39
0.469900  38
0.470300  5
0.472100  0
0.472200  35
0.473500  26
0.474500  31
0.474700  44
0.475400  32
0.475600  6
0.475700  28
0.476000  4
0.476000  14
0.476500  30
0.477000  22
0.477200  8
0.479200  2
0.479200  7
0.479600  34
0.480000  9
0.481000  12
0.481400  20
0.482800  47
0.483100  42
0.483900  39
0.484000  21
0.484200  40
0.484300  15
0.484800  18
0.487100  11
0.487800  13
0.488200  45
0.489500  0
0.489600  33
0.489900  44
0.490400  40
0.490500  14
0.491200  3
0.491300  30
0.491700  6
0.492000  12
0.492300  26
0.492500  35
0.492500  42
0.493200  7
0.494100  48
0.494300  31
0.494400  4
0.494800  9
0.495600  17
0.496100  49
0.496400  5
0.496500  24
0.498100  27
0.498500  22
0.498800  32
0.500000  6
0.503800  40
0.503900  2
0.503900  43
0.504300  11
0.504800  7
0.505400  15
0.505400  30
0.505800  12
0.505900  34
0.506100  39
0.508400  0
0.508500  9
0.510200  4
0.510600  35
0.510900  14
0.511000  29
0.511000  38
0.511200  17
0.511400  13
0.511500  40
0.511600  23
0.511700  16
0.511700  22
0.511900  33
0.512100  18
0.513700  31
0.514300  30
0.514700  5
0.515300  20
0.515800  34
0.516200  12
0.516600  8
0.518200  1
0.518800  15
0.519400  49
0.519700  32
0.520100  0
0.520500  2
0.521400  4
0.521700  27
0.522800  26
0.523100  13
0.524000  29
0.524800  44
0.525000  9
0.525400  6
0.525900  23
0.525900  40
0.526700  43
0.526800  47
0.527100  31
0.527800  35
0.527900  7
0.528700  22
0.529000  11
0.532100  39
0.532600  30
0.532900  18
0.533000  14
0.533800  42
0.534400  49
0.535000  33
0.537900  5
0.538200  15
0.538300  8
0.538900  28
0.539000  21
0.539000  47
0.539100  40
0.539200  0
0.539300  4
0.539500  11
0.541200  31
0.542700  44
0.543000  12
0.543600  30
0.543800  3
0.543900  6
0.546300  32
0.547000  26
0.547600  35
0.547700  20
0.547800  17
0.549100  14
0.549600  27
0.549600  40
0.549700  34
0.549800  47
0.550400  15
0.551100  24
0.551200  9
0.551800  2
0.551800  42
0.552200  41
0.553400  31
0.553500  45
0.554000  43
0.554500  7
0.554700  23
0.554900  16
0.555600  25
0.557700  26
0.557700  30
0.558300  32
0.558500  39
0.558600  11
0.559000  13
0.559200  0
0.560300  12
0.560300  38
0.561500  18
0.562300  22
0.562300  35
0.564100  28
0.564400  8
0.564700  4
0.565500  33
0.565700  40
0.565900  32
0.566000  30
0.566100  5
0.566300  44
0.567900  15
0.568500  24
0.571100  1
0.571300  6
0.571400  14
0.572200  12
0.573100  9
0.573700  49
0.575800  35
0.576000  30
0.576300  4
0.577200  7
0.577500  0
0.577500  42
0.577600  21
0.577900  11
0.577900  23
0.577900  34
0.578300  39
0.578600  47
0.579000  40
0.579700  31
0.580700  8
0.582300  6
0.584100  13
0.584600  42
0.585800  5
0.586400  26
0.587400  27
0.587600  14
0.587600  22
0.587800  20
0.588000  15
0.588000  47
0.588200  40
0.588300  11
0.588700  12
0.589100  6
0.589100  30
0.589400  24
0.589400  35
0.589700  3
0.589700  4
0.590000  1
0.592000  25
0.592300  13
0.592300  44
0.592500  0
0.593600  9
0.593900  26
0.595400  33
0.595900  31
0.596800  17
0.597400  38
0.598600  23
0.598900  28
0.599000  49
0.599100  8
0.599300  16
0.599700  4
0.599800  32
0.602300  47
0.602800  40
0.602900  14
0.603400  18
0.603500  6
0.603500  12
0.603600  39
0.604300  11
0.606800  34
0.606900  22
0.607000  2
0.607200  30
0.608000  0
0.610300  8
0.610700  7
0.610800  9
0.611300  15
0.611500  31
0.611800  4
0.612000  35
0.612300  20
0.613600  44
0.615200  12
0.615300  14
0.615300  26
0.615700  40
0.618300  42
0.618600  11
0.619400  21
0.619500  13
0.619600  27
0.619800  22
0.619800  32
0.620100  15
0.620200  6
0.620800  30
0.621100  35
0.622900  43
0.624200  16
0.624900  45
0.625000  31
0.625300  18
0.625900  5
0.627600  0
0.627900  40
0.628100  39
0.628300  2
0.628500  29
0.629400  24
0.630300  49
0.632600  33
0.633100  28
0.633300  12
0.633600  4
0.633800  6
0.635400  22
0.635500  35
0.637300  2
0.637500  30
0.638800  31
0.639000  9
0.639100  26
0.639200  32
0.639300  15
0.639900  13
0.640400  14
0.640700  27
0.640800  47
0.640900  40
0.642600  20
0.643700  11
0.644800  7
0.644800  23
0.645100  0
0.645500  12
0.645600  5
0.645600  25
0.645600  44
0.645700  30
0.646300  4
0.647000  15
0.647600  34
0.651700  10
0.652000  39
0.652900  18
0.652900  21
0.653500  40
0.654000  6
0.654400  35
0.654600  17
0.655400  14
0.655700  49
0.656300  30
0.656400  8
0.656500  12
0.656600  32
0.657100  27
0.657600  4
0.658600  36
0.659300  29
0.659700  37
0.659700  42
0.659900  22
0.660000  3
0.660400  44
0.660700  31
0.661300  0
0.662200  24
0.662600  7
0.663300  45
0.664300  38
0.664500  18
0.665500  12
0.667600  33
0.667700  9
0.668600  40
0.668800  15
0.668800  16
0.669200  11
0.671600  13
0.673100  26
0.674600  30
0.674600  42
0.674700  6
0.675600  35
0.676200  22
0.676700  14
0.677300  40
0.678200  31
0.678300  20
0.680000  49
0.680200  4
0.680600  19
0.681000  28
0.681100  18
0.681400  0
0.682000  32
0.682100  46
0.682400  3
0.683900  12
0.684500  30
0.685000  48
0.685100  11
0.685700  1
0.685800  27
0.685800  34
0.686100  15
0.686700  44
0.687500  7
0.688400  39
0.688900  35
0.689700  33
0.689800  9
0.692400  8
0.693100  31
0.693200  22
0.693600  4
0.694100  14
0.694200  47
0.694500  40
0.694700  11
0.694800  6
0.695000  26
0.695100  45
0.695200  30
0.696000  0
0.696000  17
0.696700  12
0.697400  21
0.697600  5
0.697900  13
0.698100  38
0.699500  40
0.699600  32
0.700000  35
0.702200  9
0.703100  42
0.704700  27
0.705600  15
0.705800  49
0.706200  7
0.708100  24
0.708600  4
0.709000  20
0.709600  18
0.710200  47
0.710300  36
0.710900  30
0.711300  14
0.712300  8
0.712700  13
0.712900  6
0.713000  35
0.713100  22
0.713700  39
0.714300  29
0.714500  44
0.714700  31
0.717000  11
0.717000  32
0.717400  15
0.719000  12
0.719500  7
0.719700  28
0.720700  26
0.721300  30
0.724700  40
0.726100  22
0.727300  43
0.727600  5
0.727700  33
0.727800  14
0.728400  6
0.728900  34
0.729200  0
0.729200  49
0.729600  13
0.729700  35
0.730600  18
0.731700  8
0.731700  12
0.732400  21
0.733000  24
0.733100  11
0.734700  15
0.736000  30
0.736100  42
0.737900  4
0.738500  2
0.738700  44
0.739100  16
0.740900  39
0.743200  8
0.743700  32
0.744000  9
0.744200  40
0.744600  20
0.744800  18
0.744800  47
0.746100  27
0.746300  26
0.746600  6
0.746900  17
0.748000  49
0.748400  7
0.748500  25
0.748900  4
0.749100  11
0.749500  15
0.749500  35
0.749700  5
0.749700  13
0.749700  30
0.751300  12
0.753000  14
0.755100  8
0.755400  34
0.756900  30
0.757300  40
0.757500  33
0.758600  31
0.758600  32
0.759300  24
0.759500  22
0.760000  36
0.760200  23
0.760200  35
0.760500  39
0.764500  15
0.764800  18
0.765400  0
0.766100  21
0.766100  26
0.766100  30
0.766800  9
0.766900  14
0.768300  4
0.769900  13
0.770100  12
0.770400  22
0.770600  2
0.770600  28
0.770700  40
0.771200  44
0.771300  38
0.772300  42
0.773100  16
0.773300  47
0.773600  20
0.774400  11
0.774600  6
0.775200  37
0.777900  9
0.777900  35
0.778300  7
0.778300  23
0.778300  33
0.778300  45
0.778800  30
0.779200  40
0.779300  12
0.779400  8
0.779700  5
0.783000  32
0.783200  4
0.783900  27
0.784000  14
0.784200  39
0.785400  15
0.785500  49
0.785600  31
0.786800  10
0.786900  0
0.788000  26
0.790400  18
0.790700  40
0.791700  6
0.791800  30
0.792700  35
0.794700  21
0.795200  13
0.795400  1
0.797400  42
0.797800  22
0.798400  47
0.798500  43
0.798800  11
0.799000  9
0.799400  29
0.799600  12
0.800700  7
0.801200  15
0.802400  40
0.802600  2
0.803100  32
0.803800  13
0.804700  39
0.805100  30
0.805500  14
0.805600  23
0.806600  35
0.807200  6
0.807900  17
0.810100  22
0.810200  8
0.810400  4
0.811200  34
0.811400  0
0.812400  44
0.812500  18
0.812800  31
0.813200  49
0.814700  40
0.814800  45
0.814900  14
0.814900  16
0.815100  2
0.815200  5
0.815400  15
0.815500  30
0.817700  20
0.819300  11
0.820900  27
0.821400  12
0.822700  26
0.824100  43
0.825200  38
0.825300  39
0.825300  44
0.825400  24
0.825800  9
0.825800  10
0.826400  40
0.826500  35
0.826600  33
0.826700  42
0.826800  6
0.827200  4
0.829100  13
0.830400  32
0.830700  15
0.831200  31
0.831300  22
0.831500  26
0.832200  0
0.833100  5
0.833700  14
0.833800  7
0.835000  6
0.835900  9
0.836100  30
0.836300  12
0.837200  8
0.838100  40
0.838800  4
0.839200  45
0.839300  11
0.839600  42
0.841100  28
0.842300  3
0.842400  35
0.843100  18
0.843900  27
0.843900  32
0.844100  1
0.845400  15
0.845500  34
0.845800  30
0.845900  24
0.846100  0
0.846100  20
0.847700  26
0.848300  12
0.848500  17
0.848900  25
0.849700  33
0.850100  23
0.852100  6
0.853900  38
0.854500  13
0.854700  14
0.854700  39
0.855600  22
0.855700  26
0.856000  11
0.856100  40
0.856500  9
0.857300  31
0.857600  47
0.858200  35
0.858800  4
0.858900  49
0.859800  7
0.860200  15
0.860500  27
0.862900  16
0.863500  30
0.864400  0
0.864800  44
0.865100  22
0.865300  3
0.865400  40
0.866100  6
0.867500  9
0.867800  2
0.867800  42
0.868700  12
0.869300  21
0.869900  27
0.870100  22
0.871500  8
0.872500  13
0.872600  5
0.873000  20
0.873800  15
0.874100  14
0.874100  16
0.874100  44
0.874400  35
0.874500  11
0.875900  1
0.876000  3
0.876100  45
0.876500  40
0.876600  49
0.877000  30
0.877000  32
0.877300  34
0.881400  12
0.881500  39
0.883400  31
0.885000  26
0.886400  13
0.886700  35
0.887600  17
0.887700  4
0.887700  6
0.888200  9
0.888300  7
0.888400  40
0.889200  0
0.889200  11
0.891000  14
0.891200  5
0.892800  15
0.892800  28
0.892900  39
0.894800  22
0.896400  30
0.896500  42
0.897000  47
0.897400  40
0.897600  20
0.898000  6
0.898200  4
0.899000  27
0.899200  12
0.899300  14
0.901000  24
0.901800  9
0.902800  18
0.902900  0
0.903000  3
0.903400  31
0.905300  8
0.906200  32
0.907800  35
0.908300  12
0.909000  44
0.910200  40
0.910700  5
0.911200  39
0.911300  2
0.911300  11
0.911300  30
0.911300  38
0.911400  23
0.911400  42
0.911700  15
0.911800  22
0.915500  6
0.916100  7
0.916400  0
0.916500  33
0.916700  34
0.916800  13
0.918100  21
0.918200  32
0.919000  16
0.919900  31
0.920000  12
0.920100  35
0.920200  20
0.922400  22
0.922500  4
0.922600  14
0.923400  40
0.923500  9
0.923800  6
0.924100  26
0.924300  17
0.926300  5
0.929700  35
0.930600  15
0.931000  11
0.931500  30
0.932900  8
0.933600  12
0.934000  6
0.934300  24
0.934500  0
0.934900  16
0.935000  40
0.935100  23
0.935700  47
0.937300  13
0.937900  39
0.938400  35
0.938900  42
0.939200  44
0.939400  4
0.940800  49
0.942200  5
0.942200  19
0.942300  31
0.943100  22
0.944900  36
0.945200  20
0.945900  10
0.946400  18
0.947200  32
0.947500  26
0.948000  0
0.949200  33
0.949400  9
0.949600  6
0.949600  14
0.949900  40
0.950100  7
0.953400  12
0.953600  47
0.953700  11
0.954000  30
0.954900  15
0.955000  49
0.955100  22
0.955100  42
0.955200  16
0.955700  13
0.955900  44
0.958100  40
0.959100  31
0.959400  28
0.960900  39
0.961000  24
0.964400  7
0.964400  14
0.965100  23
0.965500  45
0.965600  27
0.968600  3
0.968600  40
0.968700  6
0.971500  16
0.971500  30
0.971800  15
0.972500  21
0.972600  12
0.972600  35
0.973000  1
0.973100  32
0.973900  9
0.974500  42
0.974700  22
0.975200  4
0.976300  2
0.976700  5
0.976700  11
0.978200  26
0.979800  0
0.980100  44
0.981300  14
0.983200  30
0.983500  18
0.983800  31
0.983900  34
0.984700  8
0.985700  40
0.986100  33
0.986200  47
0.986900  12
0.986900  39
0.987600  13
0.990300  6
0.990500  15
0.991100  7
0.991500  35
0.991600  32
0.993800  20
0.994200  22
0.994400  14
0.994500  5
0.994700  44
0.994900  38
0.995400  45
0.995600  9
0.995700  0
0.995700  49
0.997100  4
0.997800  16
0.997800  26
0.998300  11
0.998400  30
0.999900  27
