0.000000  0
0.000100  200
0.000200  246
0.000200  917
0.000300  256
0.000400  269
0.000400  576
0.000500  791
0.000600  123
0.000700  841
0.000800  786
0.000900  661
0.001100  574
0.001300  227
0.001500  652
0.001500  882
0.002100  622
0.002100  697
0.002400  297
0.002600  215
0.002700  693
0.002800  161
0.002800  578
0.002900  852
0.003100  321
0.003200  453
0.003400  322
0.003400  477
0.003400  836
0.004000  126
0.004200  299
0.004700  180
0.004800  48
0.005500  851
0.005700  850
0.005800  217
0.005800  305
0.005800  807
0.006200  735
0.006300  14
0.006300  293
0.006300  337
0.006400  832
0.006500  281
0.006500  726
0.006700  273
0.006800  580
0.006900  76
0.006900  851
0.007400  121
0.007400  777
0.007500  670
0.007600  753
0.008000  638
0.008100  881
0.008100  995
0.008200  548
0.008300  849
0.008800  340
0.009000  101
0.009100  596
0.009400  256
0.009700  617
0.009800  129
0.009800  740
0.010000  310
0.010300  370
0.010400  500
0.010800  502
0.011600  451
0.011800  705
0.011900  669
0.012300  468
0.012400  450
0.012700  458
0.012800  424
0.013000  326
0.013000  442
0.013000  647
0.013100  413
0.013300  11
0.013500  58
0.013600  37
0.013700  693
0.013700  899
0.013800  620
0.014300  240
0.014800  860
0.014800  922
0.014900  733
0.015000  585
0.015100  385
0.015400  919
0.015800  37
0.016000  91
0.016400  189
0.016400  763
0.016700  71
0.016800  67
0.017000  90
0.017200  338
0.017300  462
0.017900  981
0.018100  630
0.018200  541
0.018200  565
0.018200  649
0.018700  214
0.018800  67
0.019100  200
0.019200  109
0.019500  758
0.019500  768
0.019600  621
0.019700  705
0.020000  452
0.020200  214
0.020300  740
0.020500  231
0.020800  49
0.020800  994
0.021200  673
0.021400  843
0.021900  251
0.022000  38
0.022000  881
0.022300  178
0.022700  137
0.022700  639
0.023000  893
0.023000  997
0.023200  993
0.023300  817
0.023400  212
0.024200  812
0.024700  477
0.024800  424
0.024800  778
0.024900  569
0.025400  254
0.025400  311
0.025400  359
0.025400  619
0.025600  135
0.025700  484
0.025700  532
0.026300  308
0.026400  314
0.026500  906
0.026600  511
0.027400  337
0.028000  816
0.028200  451
0.028400  977
0.028500  19
0.028900  257
0.029100  304
0.029300  738
0.029500  203
0.029900  465
0.030000  212
0.030200  504
0.030200  759
0.030400  522
0.030400  693
0.031000  187
0.031300  245
0.031300  980
0.031500  122
0.031600  259
0.031600  549
0.031900  203
0.032000  554
0.032100  850
0.032200  24
0.032600  755
0.032600  920
0.032800  24
0.033300  0
0.033300  147
0.033500  710
0.033700  998
0.034700  342
0.034800  151
0.034800  495
0.035200  548
0.035300  419
0.035400  87
0.035400  433
0.035600  913
0.035900  572
0.036200  967
0.036400  811
0.036500  879
0.036700  65
0.037400  879
0.037800  484
0.037800  860
0.038000  850
0.039100  573
0.039500  416
0.039600  194
0.039700  320
0.039900  939
0.040000  642
0.040100  258
0.040300  745
0.040300  823
0.040500  496
0.040800  279
0.040800  839
0.040900  942
0.041100  795
0.041200  844
0.041300  64
0.041400  181
0.041500  77
0.041800  78
0.041800  308
0.041800  405
0.041900  177
0.042000  787
0.042200  388
0.042200  722
0.042200  766
0.042300  481
0.042700  786
0.043000  212
0.043000  743
0.043100  156
0.043200  931
0.043400  782
0.043500  567
0.043500  821
0.043800  596
0.043900  682
0.044200  4
0.044200  256
0.044200  327
0.044300  62
0.044400  123
0.044400  766
0.044500  599
0.044600  981
0.044800  239
0.044800  329
0.045100  264
0.045200  145
0.045400  4
0.045500  721
0.045600  681
0.045700  682
0.045900  172
0.046700  79
0.046800  589
0.047000  987
0.047100  655
0.047200  486
0.047400  976
0.047700  452
0.047900  370
0.048000  333
0.048000  911
0.048200  605
0.048200  865
0.048600  863
0.049100  412
0.049300  832
0.049800  596
0.049900  721
0.050100  798
0.050200  851
0.050400  41
0.050500  151
0.051100  936
0.051200  788
0.051200  852
0.051300  708
0.051500  981
0.051700  663
0.052000  680
0.052000  899
0.052400  814
0.052600  816
0.053100  477
0.053300  138
0.053300  171
0.053300  400
0.053600  92
0.053600  523
0.053700  767
0.053800  470
0.054000  77
0.054400  678
0.054900  292
0.054900  460
0.055100  547
0.055200  221
0.055300  735
0.055300  738
0.055400  84
0.055700  886
0.055800  87
0.055800  370
0.056400  934
0.056800  569
0.056900  923
0.057000  894
0.057400  476
0.057800  654
0.057900  154
0.057900  484
0.057900  775
0.058000  204
0.058100  981
0.058300  109
0.058700  42
0.058800  839
0.059500  649
0.060000  992
0.060100  28
0.060100  749
0.060300  720
0.060500  302
0.060700  37
0.060700  689
0.061300  658
0.061300  945
0.061500  958
0.061600  8
0.062400  202
0.062400  514
0.062700  447
0.063600  341
0.063600  877
0.063800  921
0.063900  36
0.063900  666
0.064000  242
0.064300  767
0.064500  929
0.064700  233
0.064800  662
0.065400  488
0.065600  652
0.065900  871
0.066300  307
0.067100  285
0.067400  818
0.067500  281
0.067600  820
0.067900  813
0.068000  82
0.068200  209
0.068200  325
0.068200  475
0.068300  470
0.068400  171
0.068500  204
0.069200  99
0.069200  587
0.069600  195
0.069700  582
0.069800  534
0.070400  511
0.070500  611
0.070600  327
0.070900  199
0.070900  215
0.070900  352
0.071100  992
0.071200  968
0.071300  743
0.071400  992
0.071500  284
0.071600  340
0.071600  914
0.071700  544
0.071700  617
0.071900  947
0.072100  128
0.072200  970
0.072600  69
0.072900  192
0.073200  199
0.073500  561
0.073800  601
0.073800  716
0.073900  842
0.074000  446
0.074200  34
0.074300  459
0.074300  520
0.074600  482
0.074700  252
0.074900  991
0.075400  915
0.076000  609
0.076600  359
0.076800  27
0.076900  463
0.077100  794
0.077200  48
0.077200  772
0.077200  820
0.077400  768
0.077500  732
0.077900  167
0.078000  391
0.078700  795
0.078800  110
0.079300  509
0.079400  101
0.079400  875
0.079600  349
0.079700  930
0.079800  710
0.079900  956
0.080000  955
0.080100  174
0.080100  846
0.080100  866
0.080300  379
0.080600  436
0.080800  7
0.080800  829
0.080900  26
0.081100  695
0.081500  668
0.082300  428
0.082600  375
0.082600  929
0.082700  182
0.082900  461
0.082900  662
0.083100  580
0.083200  455
0.083300  516
0.083500  766
0.083600  137
0.083700  446
0.083800  374
0.085700  978
0.085800  251
0.086000  582
0.086300  175
0.086400  885
0.086500  337
0.086500  581
0.086800  949
0.086900  721
0.086900  818
0.087100  388
0.087200  138
0.087300  592
0.087600  662
0.087700  137
0.087700  246
0.088000  191
0.088000  819
0.088100  74
0.088300  816
0.088600  135
0.088900  225
0.088900  312
0.089000  627
0.089200  130
0.089900  456
0.090000  137
0.090300  283
0.090700  29
0.090800  742
0.090900  371
0.091100  338
0.091200  212
0.091300  750
0.091600  826
0.091900  389
0.092200  749
0.092300  816
0.092400  244
0.092400  537
0.092500  121
0.092900  404
0.093000  191
0.093100  509
0.093400  78
0.093800  127
0.094100  614
0.094200  280
0.094200  981
0.094400  834
0.094600  374
0.094700  515
0.094700  863
0.095100  257
0.095400  428
0.095800  293
0.096100  898
0.096300  333
0.096700  495
0.096900  563
0.097000  215
0.097000  338
0.097700  322
0.097700  857
0.097800  441
0.097900  20
0.098300  780
0.098300  983
0.098700  35
0.099200  3
0.099200  581
0.099300  769
0.099400  394
0.099500  469
0.100100  645
0.100100  723
0.100400  853
0.100700  314
0.100900  812
0.101200  660
0.101300  440
0.101800  40
0.102300  569
0.103100  787
0.103200  963
0.103300  110
0.104200  479
0.104300  281
0.104300  647
0.104400  131
0.104400  163
0.104600  697
0.104700  401
0.104800  469
0.105100  881
0.105700  381
0.105800  719
0.106000  164
0.106100  252
0.106100  298
0.106100  776
0.106200  40
0.106300  41
0.106500  210
0.106800  253
0.106800  332
0.106900  907
0.107200  832
0.107300  91
0.107300  196
0.107400  614
0.107400  735
0.107500  405
0.107500  854
0.107700  297
0.107800  220
0.107800  910
0.107900  179
0.108000  573
0.108300  29
0.108300  367
0.108300  695
0.108600  972
0.108700  935
0.108800  450
0.109700  100
0.109700  153
0.109900  269
0.109900  566
0.110300  386
0.110300  882
0.110300  919
0.110300  950
0.110500  425
0.110500  991
0.110700  388
0.111800  408
0.111900  303
0.112100  926
0.112300  923
0.112500  704
0.112900  682
0.113100  379
0.113100  771
0.113400  194
0.113700  518
0.113900  345
0.114000  687
0.114400  917
0.114700  907
0.114700  946
0.115200  595
0.115400  398
0.115400  695
0.115500  823
0.115500  878
0.115800  15
0.115800  95
0.115800  570
0.115800  767
0.116000  544
0.116100  57
0.116300  105
0.116500  304
0.116700  140
0.117200  165
0.117400  561
0.117600  358
0.117600  868
0.117900  789
0.117900  943
0.118300  986
0.118600  232
0.119200  91
0.119200  188
0.119200  830
0.120100  375
0.121000  319
0.121100  576
0.121200  98
0.121400  476
0.121800  312
0.121800  562
0.122300  626
0.122600  394
0.123100  219
0.123100  998
0.123200  793
0.123300  214
0.123600  24
0.123700  702
0.123900  435
0.124000  5
0.124100  175
0.124100  549
0.124100  850
0.124300  791
0.124400  429
0.124900  105
0.125100  722
0.125400  447
0.125800  505
0.125900  554
0.126500  342
0.126600  825
0.126900  223
0.127000  659
0.127300  337
0.127400  897
0.127600  467
0.127700  758
0.127800  520
0.128000  153
0.128000  879
0.128100  198
0.128300  719
0.128500  392
0.128700  328
0.128700  709
0.129100  126
0.129200  476
0.129200  952
0.129700  851
0.130300  586
0.130400  417
0.130500  139
0.130800  293
0.130800  794
0.130900  126
0.130900  630
0.131000  398
0.131300  97
0.131600  545
0.131800  513
0.132300  836
0.132400  900
0.133400  174
0.133600  772
0.133700  1
0.133800  985
0.134300  13
0.134600  262
0.134600  761
0.134800  315
0.134800  471
0.135400  691
0.135500  362
0.135500  809
0.135700  233
0.136200  363
0.136300  876
0.136500  189
0.136500  439
0.136700  803
0.136900  237
0.137000  335
0.137200  97
0.137200  180
0.137500  677
0.137600  553
0.137800  41
0.138400  726
0.138500  214
0.138600  901
0.138800  74
0.138900  421
0.139300  88
0.139400  335
0.139800  214
0.139800  982
0.139900  846
0.140200  410
0.140300  646
0.140700  745
0.140900  989
0.141100  859
0.141500  694
0.141500  784
0.141900  451
0.142200  803
0.142600  893
0.142700  95
0.142800  189
0.142900  408
0.143400  175
0.143500  742
0.143500  930
0.143600  182
0.144100  161
0.144200  721
0.144300  167
0.144300  813
0.144400  76
0.144500  914
0.145000  655
0.145000  857
0.145200  563
0.145300  306
0.145400  803
0.145500  518
0.145600  607
0.145800  839
0.145900  507
0.146000  65
0.146700  284
0.146800  189
0.146800  815
0.147100  670
0.147200  201
0.147500  860
0.148500  118
0.148500  574
0.148700  928
0.148800  12
0.149000  927
0.149200  489
0.149300  862
0.149400  914
0.149500  9
0.149500  316
0.149600  484
0.149800  50
0.150200  707
0.150200  806
0.150300  757
0.150400  862
0.150500  157
0.150500  553
0.150900  248
0.150900  440
0.150900  456
0.150900  864
0.151400  795
0.151800  468
0.152300  188
0.152400  116
0.152500  29
0.152600  870
0.152600  975
0.153200  514
0.153200  645
0.153400  361
0.153500  970
0.153800  675
0.153900  311
0.153900  639
0.154000  236
0.154700  41
0.154900  403
0.154900  487
0.155300  732
0.155500  802
0.155700  427
0.155900  489
0.156100  364
0.156900  594
0.157000  857
0.157400  230
0.157400  566
0.157600  393
0.157700  640
0.157700  787
0.157800  558
0.158300  171
0.158400  163
0.158400  276
0.158800  912
0.158900  192
0.159300  964
0.159500  543
0.160100  310
0.160300  548
0.160800  443
0.161100  359
0.161400  237
0.161500  212
0.161500  562
0.162200  380
0.162300  679
0.163200  0
0.163300  335
0.163500  29
0.163500  892
0.164100  267
0.164200  483
0.164500  241
0.165200  97
0.165500  115
0.165600  204
0.165800  952
0.165900  472
0.166300  537
0.166500  493
0.167400  333
0.167500  756
0.168000  74
0.168000  112
0.168100  73
0.168300  889
0.168300  942
0.168500  908
0.168500  928
0.169200  102
0.169300  890
0.169600  232
0.169900  861
0.170000  231
0.170100  128
0.170100  557
0.170200  983
0.170300  876
0.170300  898
0.170500  897
0.171100  355
0.171300  680
0.171400  169
0.171400  611
0.171700  98
0.172200  404
0.172500  247
0.172600  8
0.172600  832
0.172800  764
0.173100  569
0.173200  481
0.173300  295
0.173300  447
0.173400  766
0.173500  82
0.173600  798
0.173800  194
0.173900  373
0.174100  72
0.174300  569
0.174300  960
0.174400  655
0.174500  263
0.174700  23
0.174800  633
0.175000  674
0.175000  738
0.175100  114
0.175300  140
0.175300  296
0.175500  141
0.176100  299
0.176100  905
0.176400  822
0.176600  424
0.176800  533
0.176800  663
0.176900  73
0.177100  789
0.177100  819
0.177300  745
0.177300  809
0.177400  531
0.177400  731
0.177400  949
0.177700  381
0.178100  604
0.178100  621
0.178400  463
0.178700  241
0.179000  196
0.179400  687
0.179600  116
0.179600  217
0.179600  447
0.179900  357
0.180100  411
0.180200  154
0.180400  62
0.180900  745
0.180900  919
0.181000  547
0.181400  894
0.181500  146
0.181600  67
0.181800  668
0.182200  706
0.182400  647
0.182600  613
0.182800  579
0.183000  831
0.183100  410
0.183200  181
0.183500  54
0.183500  512
0.183900  35
0.184000  406
0.184200  7
0.184400  441
0.184600  820
0.184700  63
0.184700  414
0.184900  503
0.185200  377
0.185200  984
0.185400  361
0.185500  538
0.185500  657
0.185800  861
0.185900  773
0.186000  975
0.186100  260
0.186200  570
0.186200  694
0.186400  801
0.186500  375
0.187200  784
0.187300  499
0.187700  309
0.187700  375
0.188100  428
0.188100  440
0.188200  131
0.188300  720
0.188400  408
0.188900  702
0.189000  685
0.189300  142
0.189300  938
0.189700  702
0.189900  311
0.190100  59
0.190100  784
0.190500  845
0.190700  789
0.190800  797
0.191300  402
0.191500  323
0.191500  405
0.191500  627
0.192000  878
0.192000  944
0.192800  840
0.193000  48
0.193000  90
0.193200  674
0.193600  489
0.193700  537
0.194000  242
0.194000  460
0.194300  530
0.194500  330
0.194600  420
0.194700  609
0.194700  659
0.195000  266
0.195200  863
0.195400  436
0.195400  497
0.195600  322
0.196300  661
0.196600  447
0.196600  685
0.196800  48
0.196800  737
0.197100  77
0.197300  639
0.197500  612
0.197500  835
0.197700  124
0.198400  384
0.198400  958
0.198500  896
0.198800  93
0.199000  314
0.199000  472
0.199000  539
0.199000  836
0.199400  397
0.200000  442
0.200000  650
0.200300  394
0.200500  612
0.200700  227
0.200700  462
0.201100  977
0.201300  315
0.201500  424
0.201600  769
0.201700  371
0.201900  271
0.202000  41
0.202100  311
0.202200  260
0.202200  374
0.202300  58
0.202300  285
0.202600  456
0.202700  236
0.202900  384
0.203000  280
0.203100  63
0.203200  265
0.203200  523
0.203500  122
0.203600  341
0.204000  159
0.204200  686
0.204200  997
0.204900  995
0.205000  904
0.205100  589
0.205400  0
0.206300  686
0.206500  239
0.206700  214
0.207400  630
0.207500  898
0.207700  65
0.207700  228
0.207900  265
0.208400  93
0.208500  469
0.208700  273
0.209100  20
0.209800  454
0.210000  163
0.210200  306
0.210200  504
0.210300  453
0.211200  986
0.211500  539
0.211500  603
0.211800  727
0.211900  467
0.212300  781
0.212800  398
0.212900  498
0.213100  976
0.213200  703
0.213300  939
0.213400  735
0.213500  381
0.213500  486
0.213700  376
0.214900  203
0.215200  168
0.215300  39
0.215400  615
0.215500  636
0.215500  693
0.215600  753
0.215700  117
0.215700  193
0.215700  372
0.216500  537
0.216600  347
0.216700  71
0.216800  710
0.216900  123
0.216900  880
0.217100  228
0.217200  94
0.217400  288
0.218100  363
0.218100  833
0.218200  1
0.218600  663
0.218700  887
0.218900  520
0.218900  538
0.219000  847
0.219200  766
0.219300  497
0.219300  927
0.219800  724
0.220000  273
0.220300  232
0.220300  613
0.220500  395
0.220600  631
0.220700  577
0.220700  817
0.220800  57
0.220800  313
0.220900  273
0.221100  501
0.221500  529
0.221700  340
0.221700  380
0.221800  596
0.221800  871
0.221900  822
0.222100  198
0.222300  137
0.222300  299
0.222400  524
0.222500  752
0.222900  978
0.223000  138
0.223000  908
0.223100  281
0.223300  777
0.223300  842
0.224000  137
0.224000  305
0.224400  612
0.225100  259
0.225500  740
0.225900  229
0.226100  530
0.226300  418
0.226600  219
0.226600  318
0.226700  468
0.226900  876
0.227000  73
0.227300  733
0.227400  823
0.227500  65
0.227600  94
0.227700  708
0.228000  579
0.228000  773
0.228100  860
0.228500  523
0.228900  374
0.229000  202
0.229200  386
0.229400  27
0.229400  966
0.230000  108
0.230200  145
0.230200  869
0.230300  56
0.230500  850
0.230600  110
0.231200  568
0.231400  237
0.231900  866
0.232100  184
0.232600  776
0.232800  267
0.232800  461
0.233100  843
0.233200  446
0.233400  112
0.233400  328
0.233700  676
0.233800  470
0.233900  141
0.234000  415
0.234100  712
0.234400  91
0.234600  367
0.234600  372
0.235700  926
0.235900  958
0.236000  989
0.236200  497
0.236300  362
0.236500  307
0.237500  830
0.237500  872
0.237500  933
0.237900  423
0.238000  243
0.238200  473
0.238400  928
0.238500  699
0.238800  915
0.239400  438
0.239400  593
0.239500  591
0.239700  939
0.239900  417
0.240100  234
0.240300  752
0.240400  667
0.240700  535
0.240700  767
0.240900  97
0.241000  773
0.241200  773
0.241200  922
0.241400  491
0.241500  540
0.241700  713
0.241900  393
0.241900  453
0.242000  499
0.242400  528
0.242600  603
0.243100  274
0.243200  115
0.243400  253
0.243500  108
0.243600  160
0.243600  553
0.243700  387
0.243900  206
0.244100  53
0.244700  617
0.244700  619
0.244700  650
0.244900  739
0.245100  345
0.245100  999
0.245200  128
0.245300  29
0.245300  824
0.245400  238
0.245600  882
0.245600  931
0.245800  77
0.245800  311
0.245800  400
0.245800  937
0.246300  290
0.246400  9
0.246600  612
0.246800  797
0.247300  798
0.247700  624
0.247800  160
0.248300  701
0.249100  363
0.249400  202
0.249800  174
0.249900  852
0.250200  542
0.250300  843
0.250400  120
0.250400  635
0.250800  72
0.250800  157
0.250900  830
0.251400  116
0.251600  364
0.252000  834
0.252100  912
0.252200  969
0.252300  101
0.252300  689
0.252300  812
0.252400  142
0.253000  36
0.253000  169
0.253100  204
0.253100  238
0.253100  468
0.253300  302
0.253300  797
0.253500  731
0.253800  838
0.254200  662
0.254300  198
0.254300  955
0.254700  287
0.254800  128
0.254800  342
0.254800  639
0.255800  76
0.256200  737
0.256700  548
0.256800  944
0.256900  903
0.257000  989
0.257200  912
0.257500  754
0.258000  430
0.258300  986
0.258400  17
0.258400  320
0.258400  539
0.259000  216
0.259200  827
0.259400  335
0.259500  832
0.260000  144
0.260100  613
0.260300  179
0.260400  533
0.260400  574
0.260400  641
0.260600  359
0.261000  966
0.261100  275
0.261700  731
0.262200  17
0.262300  470
0.262600  80
0.262700  641
0.262900  455
0.263200  350
0.263400  184
0.263900  849
0.264000  646
0.264400  824
0.264600  955
0.264700  265
0.264700  940
0.264900  775
0.265000  671
0.265200  599
0.265400  436
0.266200  72
0.266300  752
0.266500  715
0.266600  689
0.266700  516
0.267200  834
0.267300  773
0.267400  165
0.267400  345
0.267500  197
0.267500  993
0.267600  633
0.267800  887
0.268000  131
0.268200  434
0.268600  840
0.268700  205
0.268900  13
0.268900  521
0.269100  327
0.269300  865
0.269600  138
0.269600  812
0.270300  829
0.270400  984
0.270500  594
0.270700  429
0.271100  848
0.271300  115
0.271400  116
0.271900  41
0.271900  746
0.272000  560
0.272100  469
0.272800  507
0.272800  591
0.272800  826
0.273300  367
0.273400  133
0.273400  419
0.273400  650
0.274100  718
0.275500  157
0.275600  409
0.275600  539
0.275800  351
0.275800  437
0.275900  729
0.276000  185
0.276200  201
0.276200  217
0.276500  533
0.276700  604
0.277500  518
0.277500  847
0.277700  162
0.277700  683
0.277800  26
0.277800  682
0.278000  654
0.278100  568
0.278400  571
0.278600  931
0.279100  970
0.279300  213
0.279800  136
0.280000  722
0.280300  738
0.281300  230
0.281700  835
0.282500  218
0.282700  874
0.283100  746
0.283700  178
0.283800  510
0.284300  959
0.284600  964
0.284700  275
0.284900  267
0.285200  906
0.285800  703
0.285900  864
0.286000  50
0.286000  564
0.286000  809
0.286200  378
0.286200  595
0.286600  345
0.286800  550
0.287100  773
0.287200  450
0.287400  125
0.287500  828
0.287700  105
0.287900  502
0.288100  605
0.288600  912
0.288700  406
0.288900  133
0.288900  706
0.289100  598
0.289100  750
0.289500  411
0.290200  496
0.290400  595
0.290400  816
0.290900  511
0.291100  382
0.291100  658
0.291100  918
0.291200  727
0.291300  467
0.291600  761
0.291600  787
0.291600  958
0.291700  509
0.291800  600
0.292000  619
0.292200  190
0.292300  573
0.292400  459
0.292600  414
0.292900  155
0.293100  172
0.293200  364
0.293500  52
0.293900  104
0.294000  507
0.294300  721
0.294400  488
0.294500  819
0.294800  385
0.295300  41
0.295400  333
0.295400  654
0.295800  939
0.296000  794
0.296400  462
0.296700  375
0.297300  499
0.297400  570
0.297400  630
0.297500  214
0.298600  328
0.298700  320
0.299000  766
0.299100  859
0.299200  839
0.299600  382
0.300100  400
0.300200  153
0.300200  405
0.300200  452
0.300300  111
0.300400  105
0.300400  174
0.300600  402
0.300700  758
0.300800  198
0.301000  604
0.301000  962
0.301200  160
0.301300  918
0.301400  62
0.301500  819
0.301700  124
0.301700  255
0.301900  895
0.302000  546
0.302000  808
0.302700  637
0.302900  616
0.303100  323
0.304400  490
0.304900  222
0.305200  14
0.305200  58
0.305400  348
0.305500  455
0.305500  760
0.305600  642
0.305800  202
0.306000  221
0.306100  843
0.306200  651
0.306400  832
0.306500  950
0.306600  205
0.306600  716
0.306600  830
0.306700  41
0.306700  58
0.306800  870
0.307000  823
0.307100  45
0.307100  114
0.307600  579
0.307700  46
0.307700  802
0.307800  587
0.308100  518
0.308400  332
0.308500  569
0.308800  630
0.308900  145
0.309200  736
0.309300  321
0.309300  482
0.309400  136
0.309600  584
0.309800  40
0.309900  624
0.310200  904
0.310400  315
0.310700  479
0.310700  981
0.310900  231
0.310900  570
0.311100  222
0.311500  168
0.311500  219
0.311600  922
0.311900  325
0.311900  667
0.312400  745
0.312500  147
0.312500  785
0.313000  343
0.313000  393
0.313400  104
0.313400  596
0.313600  977
0.313900  774
0.314400  945
0.315100  563
0.315300  276
0.315500  75
0.315900  534
0.315900  795
0.316000  926
0.316200  605
0.316500  406
0.316700  923
0.316800  957
0.316900  91
0.317300  374
0.317300  891
0.317300  940
0.317400  926
0.317500  66
0.318600  913
0.318800  788
0.318800  930
0.319100  767
0.319200  557
0.319500  327
0.319800  316
0.319900  770
0.320700  168
0.321300  607
0.322300  402
0.322400  296
0.322400  447
0.322600  239
0.322600  973
0.322800  922
0.322900  621
0.323000  45
0.323100  80
0.323100  768
0.323300  11
0.323300  105
0.323400  678
0.323600  767
0.323700  789
0.323800  6
0.323800  856
0.323900  379
0.324100  352
0.324300  410
0.324400  217
0.324500  168
0.324600  735
0.324900  221
0.325400  150
0.325400  419
0.325700  331
0.326100  702
0.326600  720
0.326900  819
0.327200  86
0.327500  483
0.327600  468
0.327800  286
0.328000  288
0.328000  877
0.328100  517
0.328200  799
0.328300  577
0.328500  14
0.328800  881
0.330300  907
0.330700  475
0.330900  185
0.331400  670
0.332000  182
0.332200  844
0.332500  983
0.332800  93
0.332800  233
0.333300  89
0.333600  160
0.333700  175
0.333700  481
0.333800  154
0.333800  594
0.334200  295
0.334500  971
0.334800  117
0.334900  120
0.334900  757
0.335400  72
0.335400  894
0.335500  530
0.335500  845
0.335600  746
0.335700  926
0.335800  343
0.336500  662
0.336700  133
0.337200  852
0.337300  30
0.337800  80
0.338400  98
0.338500  417
0.338700  873
0.338800  435
0.338900  106
0.339500  974
0.339700  719
0.339900  287
0.340200  797
0.340300  183
0.340700  649
0.340800  455
0.340800  859
0.341000  70
0.341100  567
0.341200  627
0.341200  878
0.341300  97
0.341300  718
0.341400  825
0.341600  610
0.341800  337
0.342000  307
0.342100  12
0.342200  337
0.342400  396
0.342400  632
0.342400  687
0.342500  297
0.342500  571
0.343600  108
0.343900  816
0.344000  547
0.344100  307
0.344100  475
0.344800  234
0.344800  918
0.344900  162
0.345200  626
0.345200  964
0.345400  418
0.345500  765
0.345900  693
0.346300  810
0.346500  859
0.346600  811
0.346600  941
0.346900  801
0.346900  961
0.347000  883
0.347300  409
0.347400  141
0.347600  301
0.348000  785
0.348100  806
0.348300  287
0.348300  362
0.348400  433
0.348800  257
0.349100  1
0.349300  720
0.349600  929
0.349700  200
0.349800  100
0.349900  519
0.350000  66
0.350000  280
0.350200  329
0.350500  699
0.350600  388
0.350700  648
0.350800  713
0.351000  954
0.351100  377
0.351300  678
0.351600  857
0.351800  468
0.351800  924
0.352000  598
0.352300  244
0.352500  303
0.352700  723
0.352700  901
0.352700  946
0.352800  571
0.353400  729
0.353500  366
0.353800  691
0.354100  168
0.354200  473
0.354300  571
0.354500  528
0.354600  28
0.354800  865
0.354900  323
0.355000  81
0.355200  213
0.355300  17
0.355300  538
0.355300  612
0.355400  226
0.355400  485
0.355800  396
0.355800  402
0.355800  690
0.356000  718
0.356200  354
0.356800  546
0.356900  988
0.357200  235
0.357300  840
0.357500  239
0.357600  371
0.357900  890
0.358000  843
0.358500  772
0.358700  166
0.358800  751
0.358900  37
0.358900  177
0.359000  109
0.359000  650
0.359200  476
0.359400  809
0.359600  560
0.359600  797
0.359700  217
0.359700  939
0.360000  50
0.360100  589
0.360400  697
0.360700  356
0.361300  4
0.361400  109
0.361400  374
0.361700  645
0.361700  815
0.361800  414
0.362200  653
0.362200  784
0.362400  975
0.362500  809
0.362900  291
0.362900  935
0.363400  246
0.363700  856
0.363800  68
0.363800  649
0.364400  383
0.364500  780
0.364500  820
0.365000  695
0.365500  373
0.365700  275
0.365700  569
0.365800  200
0.365900  337
0.366000  433
0.366200  433
0.366400  799
0.366600  943
0.366600  966
0.366700  522
0.366800  633
0.367000  947
0.367100  61
0.367100  901
0.367300  62
0.367400  381
0.367500  525
0.367600  973
0.368200  919
0.368300  128
0.368700  654
0.368800  833
0.368900  808
0.369000  189
0.369000  814
0.369100  456
0.369400  277
0.370000  789
0.370000  863
0.370100  378
0.370100  977
0.370500  34
0.370700  905
0.370800  109
0.370800  988
0.371500  285
0.371700  445
0.371900  644
0.372000  281
0.372400  892
0.372500  966
0.372700  453
0.372800  11
0.372800  408
0.373100  169
0.373300  590
0.373300  731
0.373700  513
0.373700  528
0.373900  744
0.374300  354
0.374300  766
0.374500  102
0.374900  29
0.374900  323
0.375200  286
0.375400  399
0.375900  751
0.376200  584
0.376300  282
0.376300  909
0.376500  766
0.376500  812
0.376800  149
0.376900  521
0.377000  182
0.377200  53
0.377400  235
0.377600  109
0.377600  745
0.377700  206
0.377700  615
0.377800  312
0.378100  362
0.378300  648
0.378300  702
0.378300  754
0.378700  390
0.378700  620
0.379000  90
0.379000  801
0.379400  233
0.379500  872
0.379700  998
0.380100  146
0.380200  614
0.380300  431
0.380400  731
0.380500  297
0.380500  614
0.380600  623
0.380600  858
0.380800  262
0.381100  290
0.381500  564
0.381600  511
0.381600  996
0.382100  384
0.382200  805
0.382400  363
0.382400  679
0.382600  944
0.383000  952
0.383300  253
0.383300  325
0.383400  783
0.383600  205
0.383600  835
0.384200  88
0.384700  431
0.384900  977
0.385000  235
0.385000  440
0.385100  57
0.385300  251
0.385600  720
0.385600  781
0.385600  907
0.385800  531
0.385900  893
0.386100  898
0.386100  899
0.386200  372
0.386500  619
0.386700  142
0.386800  394
0.387300  560
0.387600  35
0.387600  411
0.387800  792
0.387900  263
0.388000  315
0.388100  643
0.388100  807
0.389100  82
0.389100  516
0.389500  501
0.389600  148
0.389600  828
0.389700  991
0.389900  44
0.389900  206
0.389900  920
0.390100  338
0.390300  377
0.390300  647
0.390400  574
0.390400  938
0.390600  604
0.390900  690
0.391100  455
0.391100  975
0.391300  734
0.392200  552
0.392900  433
0.393100  695
0.393700  289
0.394000  233
0.394000  560
0.394100  920
0.394200  647
0.394300  258
0.394600  194
0.395000  847
0.395500  119
0.395600  447
0.396200  850
0.396200  978
0.396400  448
0.396700  400
0.396800  463
0.396900  243
0.396900  459
0.397000  505
0.397000  672
0.397900  870
0.398100  879
0.398300  365
0.398300  509
0.398400  198
0.398500  410
0.399100  659
0.399200  769
0.399300  26
0.399600  471
0.399700  779
0.400200  90
0.400900  60
0.401100  879
0.401400  868
0.401900  39
0.401900  134
0.402200  133
0.402300  215
0.402400  449
0.402800  911
0.402900  194
0.403100  687
0.403200  146
0.403300  714
0.404000  576
0.404800  308
0.404900  26
0.405000  802
0.405600  927
0.405800  356
0.405800  360
0.406100  184
0.406100  671
0.406200  731
0.406500  659
0.406600  226
0.406700  653
0.407000  543
0.407100  135
0.407200  90
0.407200  440
0.407300  334
0.407600  284
0.407600  390
0.408000  411
0.408000  913
0.408100  56
0.408100  385
0.408200  184
0.408300  609
0.408300  874
0.408700  246
0.409000  165
0.409000  174
0.409400  275
0.409800  366
0.410000  464
0.410100  968
0.410400  720
0.411000  94
0.411500  336
0.411500  452
0.411600  331
0.411600  403
0.411900  166
0.411900  825
0.412100  422
0.412300  522
0.412600  10
0.412800  748
0.412800  913
0.413100  567
0.413300  164
0.413700  287
0.413700  543
0.413800  829
0.414500  76
0.414800  983
0.415000  231
0.415200  531
0.415400  116
0.415500  51
0.415700  292
0.415700  929
0.416000  336
0.416700  773
0.417000  416
0.417200  104
0.417500  328
0.417600  184
0.417700  600
0.417700  918
0.418000  46
0.418100  534
0.418300  748
0.418300  811
0.418900  241
0.419100  893
0.420000  450
0.420900  59
0.420900  244
0.421000  697
0.421200  462
0.421500  187
0.421500  968
0.421600  356
0.421700  943
0.422000  859
0.422400  72
0.422600  411
0.422600  558
0.422700  27
0.423100  224
0.423100  895
0.423300  358
0.423400  525
0.423900  303
0.424000  3
0.424200  949
0.424400  691
0.424500  447
0.425500  924
0.425700  208
0.426600  165
0.426700  361
0.426800  703
0.426900  71
0.427400  42
0.427900  644
0.428500  593
0.428500  794
0.428500  865
0.428600  723
0.428700  27
0.428700  917
0.429100  685
0.429800  685
0.431300  319
0.431300  508
0.431300  629
0.432000  782
0.432300  340
0.432600  710
0.433000  76
0.433000  296
0.433100  34
0.433500  166
0.433900  601
0.434100  444
0.434400  103
0.434400  652
0.434400  703
0.434500  853
0.434600  748
0.434700  377
0.434800  683
0.435100  975
0.435300  819
0.435500  593
0.435600  105
0.435700  498
0.436100  417
0.436400  242
0.436400  309
0.436400  314
0.436400  614
0.436500  412
0.436600  376
0.436600  624
0.437200  922
0.437400  791
0.437500  502
0.437500  659
0.437500  841
0.437800  601
0.437900  892
0.438300  584
0.438500  660
0.438600  140
0.439000  376
0.439000  431
0.439000  994
0.439600  555
0.439600  800
0.440100  406
0.440600  7
0.440800  300
0.440800  852
0.441000  138
0.441800  280
0.441800  982
0.441900  49
0.441900  140
0.442000  113
0.442400  391
0.442500  578
0.442700  642
0.443000  78
0.443200  725
0.443200  872
0.443300  300
0.443500  950
0.443900  572
0.443900  950
0.444000  213
0.444000  244
0.444000  758
0.444100  247
0.444100  495
0.444200  807
0.444200  870
0.444800  304
0.444900  417
0.445000  917
0.445200  477
0.445400  127
0.445500  575
0.445800  767
0.445800  988
0.446000  706
0.446300  840
0.446500  896
0.446700  856
0.447100  476
0.447200  366
0.447400  2
0.447400  671
0.447700  344
0.448300  96
0.448400  396
0.448400  441
0.449100  137
0.449300  346
0.449300  543
0.449600  703
0.449700  109
0.449900  470
0.450000  657
0.450000  688
0.450100  9
0.450100  815
0.450100  892
0.450400  703
0.450900  109
0.451200  317
0.451300  239
0.451800  423
0.451800  428
0.452000  454
0.452000  479
0.452000  867
0.452100  878
0.452400  457
0.452800  569
0.453000  566
0.453100  645
0.453200  191
0.454400  557
0.454500  282
0.454800  512
0.455000  284
0.455000  374
0.455300  986
0.455600  201
0.455600  426
0.455700  324
0.455800  431
0.456000  971
0.456300  691
0.456300  799
0.456600  681
0.456700  315
0.456800  920
0.457100  140
0.457200  957
0.457300  424
0.457800  775
0.458300  224
0.458300  342
0.458500  214
0.458500  694
0.458800  712
0.459000  113
0.459000  874
0.459300  111
0.459700  668
0.460100  82
0.460200  930
0.460600  519
0.460900  90
0.461100  941
0.461300  303
0.461600  327
0.461800  428
0.461900  114
0.461900  810
0.462000  334
0.462700  746
0.462900  771
0.463000  683
0.463400  356
0.463700  291
0.463800  169
0.464000  798
0.464200  999
0.464300  445
0.464300  586
0.464300  677
0.464400  152
0.464600  453
0.464600  478
0.464600  859
0.464700  99
0.465100  626
0.466200  101
0.466300  13
0.466800  629
0.466900  202
0.466900  417
0.467300  134
0.467700  393
0.467900  100
0.468000  137
0.468000  364
0.468200  437
0.468600  972
0.469300  749
0.470100  774
0.470600  755
0.470700  809
0.470800  343
0.471000  6
0.471000  349
0.471000  799
0.471200  825
0.471200  985
0.471500  784
0.471800  198
0.471900  611
0.472100  503
0.472500  268
0.472600  710
0.472700  676
0.472800  738
0.472900  342
0.472900  375
0.473000  78
0.473000  799
0.473000  940
0.473200  826
0.473300  842
0.473600  508
0.473700  546
0.473700  660
0.473800  271
0.474200  268
0.474200  910
0.474300  567
0.474600  119
0.474600  275
0.474600  729
0.474700  546
0.474700  747
0.474900  468
0.474900  967
0.475300  196
0.475300  523
0.475500  526
0.475500  855
0.475600  549
0.475900  341
0.476000  204
0.476000  584
0.476000  734
0.476100  394
0.476100  680
0.476300  938
0.476400  345
0.476500  133
0.476500  319
0.476600  111
0.476800  684
0.476900  125
0.477100  117
0.479000  541
0.479200  477
0.479300  348
0.479400  507
0.479500  300
0.479600  107
0.479700  206
0.479900  705
0.480000  209
0.480800  88
0.481100  971
0.481300  808
0.481600  208
0.481800  560
0.481900  120
0.481900  240
0.482100  381
0.482100  618
0.482200  628
0.482200  929
0.482300  881
0.482400  734
0.482700  152
0.482900  285
0.483000  835
0.483200  35
0.483200  793
0.483300  202
0.483300  716
0.483800  350
0.483900  221
0.483900  665
0.484100  571
0.484700  951
0.485400  862
0.485500  268
0.485500  477
0.485500  905
0.486500  245
0.487100  197
0.487500  755
0.487600  689
0.487700  178
0.487800  555
0.488400  153
0.488700  700
0.488700  943
0.489100  759
0.489100  974
0.489200  489
0.489800  255
0.489900  388
0.489900  489
0.489900  524
0.490000  854
0.490000  890
0.491500  444
0.491500  459
0.491600  754
0.492100  18
0.492200  951
0.492300  79
0.492300  109
0.492500  926
0.492800  616
0.493000  177
0.493100  790
0.493200  346
0.493700  61
0.494000  244
0.494000  508
0.494100  646
0.494800  211
0.495100  577
0.495200  97
0.495600  610
0.495900  168
0.496300  467
0.496700  412
0.496900  469
0.497000  179
0.498000  919
0.498100  861
0.498300  574
0.499000  246
0.499100  65
0.499200  958
0.499400  783
0.499500  959
0.500000  871
0.500200  935
0.500800  475
0.500900  394
0.501100  954
0.501300  496
0.501700  49
0.501700  922
0.501700  994
0.501800  985
0.502200  763
0.502500  973
0.502600  406
0.502800  577
0.502900  646
0.503200  33
0.503300  160
0.503300  200
0.503400  539
0.503700  361
0.503700  419
0.504000  356
0.504200  379
0.504800  92
0.504800  569
0.504800  675
0.504900  852
0.505100  337
0.505300  192
0.505300  215
0.505300  307
0.505300  884
0.505400  912
0.506100  661
0.506500  920
0.506600  378
0.506800  125
0.506800  317
0.506800  810
0.506900  424
0.507000  156
0.507200  806
0.507200  981
0.507600  838
0.507900  537
0.508200  817
0.508300  371
0.508300  386
0.508400  940
0.508600  327
0.508700  439
0.508700  446
0.508700  538
0.508800  374
0.508800  416
0.508800  561
0.508800  859
0.508900  741
0.509100  790
0.509400  591
0.509400  830
0.509700  141
0.509800  38
0.509800  243
0.509900  931
0.510000  94
0.510600  757
0.510700  657
0.510800  180
0.511200  828
0.511400  206
0.511600  894
0.511700  376
0.512000  829
0.512100  410
0.512200  366
0.512200  829
0.512600  566
0.512800  970
0.513000  609
0.513100  54
0.513200  241
0.513300  441
0.513600  399
0.513700  895
0.514000  860
0.514100  646
0.514400  288
0.515100  981
0.515200  199
0.515600  759
0.515700  903
0.516000  364
0.516400  510
0.516400  545
0.516700  715
0.517100  651
0.517100  782
0.517300  996
0.517500  968
0.518100  918
0.518400  16
0.518600  226
0.518700  737
0.519000  14
0.519100  876
0.519100  986
0.519400  154
0.519400  491
0.519600  499
0.519800  420
0.519800  707
0.520600  104
0.520600  833
0.520700  204
0.521500  265
0.521600  95
0.521600  181
0.521900  944
0.522000  333
0.522000  341
0.522000  506
0.522500  107
0.522700  956
0.522800  242
0.522800  989
0.523100  436
0.523100  484
0.523300  148
0.523700  274
0.523700  732
0.523800  317
0.523900  96
0.524100  930
0.524200  59
0.524300  406
0.524400  359
0.524700  112
0.525100  762
0.525200  627
0.525200  873
0.525300  623
0.525400  148
0.526000  460
0.526100  140
0.526200  339
0.526800  187
0.526900  70
0.527000  922
0.527200  45
0.527500  620
0.527800  212
0.527800  605
0.528100  626
0.528200  338
0.528600  86
0.528600  335
0.528600  885
0.528600  953
0.528700  418
0.528700  929
0.528900  124
0.528900  136
0.529000  397
0.529100  371
0.529300  409
0.529900  996
0.530500  154
0.531300  656
0.531300  689
0.531500  835
0.531600  114
0.531600  503
0.531900  668
0.531900  956
0.532100  669
0.532100  749
0.532200  603
0.532800  67
0.532900  254
0.533500  476
0.533800  240
0.533800  422
0.534000  676
0.534300  51
0.534300  528
0.534400  695
0.534800  330
0.534800  366
0.535300  379
0.535500  210
0.535600  545
0.535700  359
0.536000  376
0.536200  205
0.536500  125
0.536500  653
0.536600  939
0.536800  218
0.536900  611
0.537200  486
0.537200  636
0.537500  246
0.537600  619
0.537900  329
0.538200  585
0.538300  847
0.539100  66
0.539100  771
0.539600  721
0.539600  826
0.539800  562
0.539900  293
0.540000  612
0.540100  106
0.540100  979
0.540500  536
0.540700  41
0.540900  8
0.540900  845
0.541100  610
0.542600  91
0.542600  844
0.543500  273
0.543700  709
0.543800  149
0.544000  536
0.544100  513
0.544300  580
0.544400  141
0.544400  562
0.544600  506
0.544700  604
0.544800  623
0.545300  797
0.545500  311
0.546000  407
0.546100  50
0.546300  32
0.546700  685
0.546800  217
0.547200  500
0.547300  246
0.547300  660
0.547400  351
0.547800  852
0.547900  382
0.547900  455
0.548100  951
0.548200  629
0.548300  832
0.548500  125
0.548600  345
0.548600  587
0.548700  191
0.548700  485
0.548700  574
0.548800  83
0.549000  644
0.549100  98
0.549100  562
0.549200  56
0.549200  888
0.549400  14
0.549500  103
0.549500  742
0.549600  253
0.549700  819
0.549700  935
0.549800  376
0.550400  987
0.550500  580
0.550900  410
0.550900  698
0.551000  257
0.551000  408
0.551500  367
0.552300  957
0.552500  280
0.552600  747
0.552900  777
0.552900  950
0.553200  538
0.553600  83
0.553600  792
0.554300  270
0.555000  271
0.555100  959
0.555200  230
0.555300  913
0.555500  535
0.555600  801
0.555800  178
0.555900  686
0.556000  919
0.556100  639
0.556200  515
0.556300  741
0.556500  871
0.556700  95
0.557100  679
0.557200  489
0.557400  779
0.557600  78
0.557900  644
0.558500  202
0.558600  376
0.558600  795
0.558900  87
0.559100  588
0.559100  674
0.559100  882
0.559100  952
0.559200  838
0.559300  794
0.559400  333
0.559500  298
0.559700  625
0.559700  655
0.560100  370
0.560100  610
0.560200  468
0.560300  4
0.560500  179
0.560700  499
0.560900  186
0.561100  199
0.561100  526
0.561400  733
0.562200  337
0.562300  776
0.562400  237
0.562400  257
0.562400  415
0.562400  599
0.562500  961
0.563000  230
0.563400  104
0.564100  467
0.564300  319
0.564300  533
0.564700  341
0.564800  584
0.565200  780
0.565500  997
0.565600  71
0.565600  862
0.565900  248
0.566000  128
0.566200  772
0.566600  979
0.566700  499
0.567000  197
0.567100  474
0.567700  99
0.567700  371
0.568000  494
0.568000  495
0.568400  541
0.568900  586
0.569200  874
0.569600  763
0.569700  519
0.569700  637
0.570300  649
0.570600  758
0.571100  327
0.571700  533
0.572100  551
0.572100  852
0.572400  153
0.572900  372
0.573100  789
0.573100  867
0.573400  600
0.573500  149
0.573500  723
0.573700  534
0.573700  538
0.574300  2
0.574400  257
0.574400  938
0.574500  53
0.574600  178
0.574800  28
0.575100  804
0.575600  280
0.575700  213
0.575900  3
0.575900  843
0.576200  277
0.576200  390
0.576300  803
0.576500  366
0.576600  207
0.576700  544
0.576900  93
0.576900  285
0.576900  420
0.577200  222
0.577200  467
0.577500  136
0.577500  844
0.577500  989
0.577700  417
0.577900  387
0.578300  442
0.578300  961
0.578500  809
0.578700  968
0.578800  669
0.579100  715
0.579400  227
0.579600  577
0.580100  104
0.580200  463
0.580200  657
0.580500  670
0.580600  358
0.580600  988
0.580700  960
0.581300  143
0.581300  609
0.581400  793
0.581500  153
0.581600  255
0.581700  709
0.582000  16
0.582000  269
0.582600  495
0.582600  670
0.582800  8
0.583000  616
0.583600  120
0.583700  117
0.583700  447
0.583800  730
0.583800  834
0.584000  74
0.584200  731
0.584200  860
0.584700  438
0.584900  812
0.585200  311
0.585200  345
0.585500  598
0.585500  804
0.586500  247
0.586600  806
0.586700  37
0.586700  441
0.586700  915
0.586800  441
0.587000  830
0.587100  608
0.587200  486
0.587400  766
0.587400  827
0.587800  82
0.587800  565
0.587900  362
0.587900  941
0.588000  283
0.588100  280
0.588900  519
0.589100  508
0.589200  392
0.589300  466
0.589500  95
0.589800  795
0.589900  10
0.590500  563
0.590700  833
0.590900  703
0.591100  196
0.591400  936
0.591600  265
0.592000  24
0.592300  950
0.592500  419
0.592600  96
0.592900  560
0.592900  932
0.593300  153
0.593800  851
0.593900  958
0.594200  425
0.594300  991
0.595000  529
0.595100  192
0.595100  281
0.595200  821
0.595300  631
0.595500  991
0.595600  64
0.595600  970
0.595800  235
0.595900  693
0.596000  135
0.596000  181
0.596200  146
0.596400  937
0.596700  15
0.596700  801
0.596900  746
0.596900  772
0.597000  610
0.597000  764
0.597200  811
0.597500  564
0.597500  774
0.597600  433
0.597600  467
0.597800  369
0.598500  354
0.598500  905
0.598900  189
0.599300  337
0.599700  712
0.599700  767
0.600400  90
0.600700  891
0.601000  851
0.601100  566
0.601300  178
0.601500  304
0.601500  660
0.601900  14
0.602200  26
0.602300  905
0.602500  316
0.602500  375
0.602500  521
0.602900  851
0.603000  661
0.603700  478
0.603700  930
0.603800  387
0.603900  580
0.603900  977
0.604000  17
0.604100  461
0.604200  521
0.604200  601
0.604800  781
0.604900  713
0.605200  953
0.605400  5
0.605500  814
0.605600  180
0.605700  198
0.607000  794
0.607100  312
0.607400  565
0.607600  334
0.607800  830
0.607900  515
0.608100  127
0.608100  599
0.608500  778
0.608800  75
0.608800  378
0.608800  420
0.608900  90
0.608900  953
0.609000  474
0.609000  728
0.609500  520
0.609600  695
0.609800  76
0.609800  674
0.610200  920
0.610300  442
0.610600  31
0.610600  224
0.610600  390
0.611000  180
0.611000  696
0.611100  862
0.611200  380
0.611400  76
0.611400  644
0.611400  804
0.611600  614
0.612100  120
0.612600  5
0.612600  41
0.612600  185
0.612600  452
0.612700  182
0.613200  395
0.613200  897
0.613400  320
0.613400  788
0.613500  452
0.613500  841
0.613600  449
0.613800  372
0.613800  569
0.613800  704
0.613900  151
0.614000  663
0.614300  0
0.614600  66
0.614700  459
0.614800  788
0.614900  497
0.615000  378
0.615400  333
0.615600  616
0.615900  896
0.616400  370
0.616500  834
0.616700  401
0.616900  821
0.617100  257
0.617100  553
0.617200  73
0.617300  141
0.617800  392
0.618000  500
0.618100  300
0.618100  628
0.618500  450
0.618500  885
0.618600  654
0.618600  658
0.618800  804
0.618900  136
0.618900  473
0.619100  235
0.619200  804
0.619600  924
0.619900  832
0.620000  180
0.620000  723
0.620600  358
0.620600  402
0.620800  501
0.620900  414
0.620900  582
0.621300  596
0.621300  677
0.621600  853
0.621700  744
0.621900  681
0.622000  428
0.622100  829
0.622800  148
0.623500  958
0.623700  288
0.623800  749
0.623900  957
0.624100  447
0.624300  605
0.624500  266
0.625000  626
0.625200  978
0.625500  927
0.625600  16
0.625800  71
0.625800  884
0.626000  549
0.626100  27
0.626200  80
0.626300  405
0.626400  56
0.626600  66
0.626800  360
0.627000  342
0.627200  566
0.627500  160
0.628300  16
0.628400  223
0.629000  618
0.629000  934
0.629300  645
0.630000  124
0.630000  726
0.630100  298
0.630200  228
0.630200  716
0.630300  240
0.630500  100
0.630500  626
0.630600  218
0.630600  528
0.630800  415
0.630900  72
0.631100  380
0.631100  423
0.631400  316
0.631400  530
0.631400  967
0.631600  34
0.632300  110
0.632400  172
0.632700  34
0.633300  782
0.633600  181
0.633600  184
0.633700  181
0.634100  238
0.634200  946
0.634300  548
0.634400  370
0.634400  765
0.634800  654
0.635000  627
0.635200  765
0.635600  16
0.635700  289
0.636100  920
0.636200  868
0.636300  448
0.636600  70
0.636700  656
0.637000  342
0.637100  17
0.637700  159
0.637700  336
0.637700  727
0.638100  568
0.638800  723
0.638800  892
0.639000  932
0.639200  708
0.639600  139
0.639800  513
0.639900  893
0.640000  11
0.640000  51
0.640000  70
0.640100  801
0.640500  31
0.640600  102
0.640600  943
0.640700  995
0.641200  475
0.641800  205
0.641900  64
0.641900  718
0.642000  98
0.642000  605
0.642100  364
0.642100  984
0.642300  732
0.642700  571
0.642900  491
0.643100  71
0.643200  939
0.643400  786
0.643500  843
0.643700  749
0.643800  2
0.644300  370
0.644300  518
0.644300  989
0.644900  845
0.646000  471
0.646300  883
0.646700  508
0.647100  883
0.647200  606
0.647500  893
0.647800  855
0.648000  975
0.648100  308
0.648200  669
0.648300  686
0.648400  612
0.648500  179
0.648500  803
0.648800  780
0.648900  13
0.648900  585
0.648900  607
0.648900  966
0.649000  789
0.649200  14
0.649200  350
0.649900  545
0.650000  47
0.650200  265
0.650400  624
0.650500  676
0.650500  942
0.650600  70
0.651200  375
0.651500  427
0.653100  246
0.653700  507
0.654000  99
0.654100  135
0.654200  679
0.654300  908
0.654400  806
0.654600  607
0.655100  178
0.655100  274
0.655200  66
0.655700  14
0.655700  456
0.655700  557
0.656000  929
0.656700  635
0.656900  394
0.657000  631
0.657100  939
0.657200  51
0.657300  641
0.657500  187
0.657500  634
0.658000  45
0.658000  126
0.658000  190
0.658000  639
0.658200  229
0.658700  332
0.658700  740
0.658800  174
0.658800  941
0.659400  360
0.659600  164
0.659900  53
0.659900  89
0.660200  843
0.660300  683
0.660600  927
0.660700  483
0.660800  760
0.661600  424
0.661700  220
0.661800  212
0.661900  721
0.661900  834
0.661900  917
0.662200  755
0.662500  607
0.662800  378
0.662800  919
0.662900  244
0.662900  523
0.662900  636
0.663000  789
0.663200  771
0.663400  341
0.663500  125
0.663600  160
0.663600  337
0.663800  31
0.664200  737
0.664300  914
0.664500  362
0.664700  112
0.664700  607
0.664900  438
0.665000  305
0.665100  32
0.665500  167
0.665900  921
0.666000  223
0.666300  809
0.666400  772
0.666500  95
0.666500  197
0.666500  717
0.666600  733
0.666900  269
0.666900  680
0.667100  630
0.667100  656
0.667100  810
0.667200  288
0.667200  690
0.667400  112
0.667500  87
0.667600  148
0.667900  163
0.668000  276
0.668600  512
0.669200  526
0.669400  209
0.669600  117
0.669600  911
0.669800  636
0.669900  13
0.670300  100
0.670300  419
0.670900  793
0.671600  630
0.672700  331
0.673000  151
0.673200  213
0.673400  376
0.673700  210
0.674000  545
0.674100  722
0.674200  161
0.674200  320
0.674200  850
0.674900  336
0.675000  657
0.675200  321
0.675200  356
0.675300  164
0.675700  40
0.676100  989
0.676200  201
0.676300  184
0.676700  485
0.676900  479
0.677300  105
0.677300  641
0.677400  366
0.677700  158
0.678100  581
0.678500  765
0.678600  904
0.679100  374
0.679300  108
0.679400  516
0.679500  150
0.679600  303
0.679600  513
0.679900  553
0.680000  77
0.680100  270
0.680100  596
0.680200  259
0.680900  85
0.681100  860
0.681400  202
0.682300  380
0.682400  706
0.682500  77
0.682600  832
0.682700  172
0.683000  101
0.683200  49
0.683400  406
0.683400  534
0.683400  647
0.683500  28
0.683700  476
0.683900  772
0.684100  850
0.684200  878
0.685400  72
0.685500  885
0.685600  222
0.686000  516
0.686400  247
0.686600  19
0.686900  197
0.686900  538
0.687200  269
0.687300  565
0.687300  811
0.687400  805
0.687700  961
0.688000  6
0.688000  459
0.688300  936
0.688400  363
0.688500  488
0.688500  640
0.688600  830
0.689100  146
0.689100  236
0.689400  290
0.690300  633
0.690400  228
0.690400  443
0.690700  703
0.690700  858
0.691000  360
0.691300  210
0.691600  793
0.692200  966
0.692600  479
0.692600  807
0.692800  269
0.693100  825
0.693600  246
0.693800  95
0.694000  364
0.694100  947
0.694300  651
0.694500  899
0.695300  314
0.695500  19
0.695600  911
0.695900  246
0.696300  973
0.696500  261
0.696600  674
0.697300  111
0.697300  494
0.697400  546
0.697400  947
0.697800  704
0.698300  745
0.698300  793
0.698400  811
0.698500  687
0.698600  49
0.699500  726
0.699800  598
0.700500  83
0.700500  627
0.700800  248
0.700800  480
0.700900  19
0.700900  451
0.701400  218
0.701800  683
0.701900  508
0.702800  916
0.703000  106
0.703300  410
0.703500  68
0.703700  684
0.704100  144
0.704200  113
0.704800  953
0.705000  866
0.705200  204
0.705200  908
0.705400  237
0.705600  320
0.706400  733
0.706800  470
0.706900  355
0.707100  681
0.707300  717
0.707300  963
0.707500  426
0.707500  511
0.707700  69
0.708000  215
0.708000  936
0.708100  412
0.708200  774
0.708500  369
0.708700  358
0.708700  598
0.709000  853
0.709400  451
0.710100  473
0.710200  287
0.710500  260
0.711000  209
0.711100  160
0.711100  213
0.711300  922
0.711400  634
0.711500  410
0.711500  755
0.711500  884
0.711700  20
0.711900  741
0.712100  223
0.712100  736
0.712200  687
0.712300  530
0.712400  805
0.712600  640
0.712800  153
0.712800  849
0.712900  400
0.713100  949
0.713500  399
0.713700  812
0.714100  343
0.714300  174
0.714400  854
0.714600  572
0.714800  847
0.715000  35
0.715500  240
0.715700  158
0.715700  497
0.715700  810
0.715800  329
0.715900  244
0.716000  462
0.716000  643
0.716000  685
0.716200  694
0.716700  940
0.716700  971
0.716800  503
0.716900  185
0.717100  831
0.717200  359
0.717400  356
0.717500  453
0.717800  488
0.717800  746
0.717900  220
0.718300  868
0.718700  741
0.718800  239
0.718800  588
0.718900  444
0.719000  271
0.719000  618
0.719600  278
0.719600  536
0.719600  956
0.719800  488
0.719900  420
0.719900  497
0.719900  697
0.720000  109
0.720000  688
0.720000  969
0.720200  125
0.721000  830
0.721100  187
0.721100  295
0.721300  855
0.721600  591
0.721700  798
0.721800  722
0.722100  173
0.722200  741
0.722200  806
0.722300  789
0.722600  762
0.722700  848
0.723600  152
0.723600  672
0.723800  915
0.724000  106
0.724100  483
0.724200  643
0.724900  769
0.725000  819
0.725100  982
0.725500  25
0.725500  294
0.725600  56
0.725600  756
0.725600  791
0.725700  738
0.725700  892
0.725700  983
0.726000  880
0.726000  966
0.726100  12
0.726100  399
0.726100  772
0.726200  769
0.726200  837
0.726400  273
0.726400  325
0.727200  963
0.727400  492
0.727500  493
0.727600  428
0.727600  450
0.727900  97
0.727900  499
0.728200  634
0.728400  789
0.728600  394
0.729000  162
0.729200  930
0.729300  417
0.729300  736
0.729400  328
0.730000  7
0.730000  75
0.730200  557
0.730200  825
0.730600  281
0.730700  457
0.731200  91
0.731600  671
0.731800  19
0.731900  473
0.731900  787
0.732200  106
0.732300  768
0.732500  106
0.732700  760
0.733000  157
0.733000  408
0.733000  706
0.733000  871
0.733100  210
0.733200  574
0.733400  882
0.733500  719
0.733600  743
0.734200  321
0.734400  9
0.734600  159
0.734600  350
0.734800  236
0.735100  586
0.735200  951
0.735300  671
0.735400  0
0.735400  61
0.735400  484
0.735700  967
0.736700  223
0.737000  423
0.737400  147
0.737400  879
0.737600  830
0.737700  330
0.737800  669
0.738000  94
0.738100  93
0.738200  83
0.738500  954
0.738900  50
0.738900  774
0.739100  257
0.739100  489
0.739500  867
0.739800  862
0.740100  133
0.740200  366
0.740400  879
0.740400  900
0.740600  522
0.740700  402
0.740700  547
0.741200  292
0.741500  708
0.741600  223
0.741800  49
0.741900  405
0.742000  376
0.742400  755
0.742400  865
0.742600  192
0.743000  225
0.743000  787
0.743000  959
0.743500  248
0.744000  274
0.744200  339
0.744300  804
0.744800  797
0.745000  374
0.745400  149
0.745700  275
0.746300  169
0.746500  284
0.746800  258
0.746900  837
0.747100  416
0.747100  706
0.747200  174
0.747200  266
0.747300  19
0.747400  331
0.747500  395
0.747500  674
0.747500  701
0.747600  696
0.747800  234
0.748000  339
0.748000  517
0.748300  795
0.748500  973
0.748700  741
0.748900  446
0.749000  744
0.749200  591
0.749800  819
0.749900  852
0.750300  703
0.750300  844
0.750400  866
0.750500  395
0.750800  379
0.750800  743
0.750900  99
0.750900  566
0.751100  802
0.751100  901
0.751600  412
0.752000  752
0.752500  718
0.752600  129
0.752600  259
0.752700  54
0.753100  328
0.753800  167
0.754200  87
0.754300  926
0.754400  222
0.754600  511
0.754900  250
0.755300  793
0.755400  607
0.755600  951
0.755700  356
0.756100  728
0.756200  726
0.757300  841
0.757300  928
0.757400  167
0.757400  856
0.757800  562
0.758200  928
0.758400  364
0.758500  530
0.759100  317
0.759100  980
0.759200  397
0.759200  839
0.759300  399
0.760000  674
0.760100  72
0.760100  733
0.760200  405
0.760200  789
0.760300  114
0.760300  698
0.760600  124
0.760700  462
0.761000  62
0.761100  624
0.761700  957
0.761900  155
0.761900  213
0.761900  914
0.762200  283
0.762200  444
0.762500  406
0.762600  372
0.763100  742
0.763100  980
0.763300  669
0.763400  379
0.763400  804
0.764000  171
0.764200  453
0.764300  836
0.764400  332
0.764600  833
0.764700  346
0.764900  856
0.764900  988
0.765200  55
0.765400  774
0.765700  87
0.765800  160
0.765900  255
0.765900  402
0.766000  163
0.766300  61
0.766500  689
0.766900  697
0.767300  782
0.767500  715
0.768100  382
0.768100  570
0.768200  675
0.768300  252
0.768600  615
0.769300  184
0.770200  551
0.770300  66
0.770300  216
0.770400  805
0.770600  48
0.770600  860
0.771100  623
0.771200  307
0.771200  649
0.771300  834
0.771300  868
0.771400  591
0.771600  195
0.771700  103
0.772300  420
0.772400  188
0.772800  470
0.773200  999
0.773400  926
0.773500  482
0.773500  726
0.773700  149
0.774000  970
0.774400  305
0.774400  693
0.774700  26
0.775500  429
0.775600  384
0.775700  949
0.775800  23
0.775800  902
0.776200  244
0.776700  859
0.776800  81
0.776900  55
0.776900  927
0.777000  42
0.777100  439
0.777500  101
0.777700  89
0.777700  720
0.778100  463
0.778200  455
0.778600  685
0.779000  59
0.779400  126
0.780400  292
0.780700  248
0.781600  607
0.781600  926
0.781800  188
0.782100  1
0.782100  119
0.782300  182
0.782400  62
0.782400  203
0.782400  876
0.782600  343
0.782700  754
0.782800  803
0.782900  886
0.783000  262
0.783400  400
0.783800  292
0.783800  555
0.783900  811
0.784000  358
0.784400  988
0.784400  992
0.784600  215
0.784800  639
0.784900  680
0.785200  646
0.785300  856
0.785800  13
0.786000  33
0.786000  106
0.786000  435
0.786000  930
0.786300  275
0.786600  863
0.786700  402
0.786800  588
0.787000  192
0.787100  957
0.787200  390
0.787600  165
0.787600  633
0.788000  273
0.788000  668
0.788000  743
0.788100  483
0.788300  859
0.788400  414
0.788400  535
0.788500  33
0.789000  198
0.789000  770
0.789200  320
0.789400  193
0.789800  280
0.790100  525
0.791200  209
0.791200  270
0.791300  453
0.791600  176
0.792000  521
0.792000  561
0.792100  213
0.792500  775
0.792600  494
0.792600  874
0.793000  345
0.793300  452
0.793300  573
0.793300  944
0.793400  599
0.793900  941
0.794200  363
0.794200  650
0.794300  338
0.794500  81
0.794500  706
0.794500  863
0.794800  8
0.794800  894
0.795000  853
0.795200  175
0.795400  224
0.795500  358
0.795600  326
0.795700  572
0.795700  782
0.796100  761
0.796500  268
0.796600  65
0.796600  332
0.796900  776
0.797600  953
0.797700  307
0.797800  138
0.798300  671
0.798500  433
0.798500  527
0.798500  996
0.798900  805
0.799000  459
0.799400  182
0.799500  650
0.800000  966
0.800100  847
0.800500  644
0.800700  24
0.800800  135
0.800800  553
0.801000  614
0.801200  99
0.801200  236
0.801300  532
0.801500  541
0.801800  310
0.801800  464
0.801900  469
0.802500  145
0.802700  534
0.803000  563
0.803100  662
0.803200  5
0.803500  553
0.803900  173
0.804200  845
0.804500  538
0.804700  288
0.804900  270
0.805000  973
0.805200  49
0.805400  682
0.805600  554
0.806000  611
0.806300  244
0.806900  722
0.807100  162
0.807800  522
0.807900  785
0.808200  393
0.808200  470
0.808400  16
0.808400  800
0.808500  440
0.808800  739
0.809000  229
0.809000  775
0.809000  977
0.809100  16
0.809700  709
0.810100  494
0.810400  917
0.810800  555
0.811000  722
0.811500  54
0.811600  153
0.811800  624
0.811800  943
0.811900  668
0.812100  767
0.812300  968
0.812600  602
0.813100  301
0.813600  866
0.813700  791
0.813800  185
0.813800  695
0.814000  632
0.814200  440
0.814300  559
0.814400  370
0.814400  404
0.814500  463
0.815800  346
0.815900  228
0.816300  84
0.816400  811
0.816500  311
0.816600  792
0.816700  226
0.816700  636
0.816800  161
0.816900  227
0.817000  471
0.817500  194
0.817500  237
0.818200  260
0.818400  112
0.818500  454
0.818600  470
0.818700  686
0.819300  204
0.819300  611
0.819500  395
0.819600  24
0.819600  675
0.819900  655
0.820200  520
0.820200  983
0.820300  99
0.820400  26
0.820400  778
0.820700  690
0.821000  183
0.821100  507
0.821200  33
0.821400  888
0.821900  862
0.822000  515
0.822000  567
0.822200  963
0.822800  984
0.823000  384
0.823000  522
0.823000  737
0.823300  487
0.823300  513
0.823400  68
0.823400  155
0.825300  187
0.825300  709
0.825600  448
0.826000  436
0.826100  14
0.826200  533
0.826300  794
0.826300  859
0.826800  186
0.827000  269
0.827200  134
0.827500  806
0.827700  765
0.828100  73
0.828200  204
0.828300  403
0.828400  211
0.829100  872
0.829200  219
0.829200  742
0.829400  140
0.829600  11
0.829700  884
0.830000  882
0.830400  759
0.830700  224
0.830700  659
0.830800  98
0.830800  774
0.831500  358
0.831700  148
0.831700  668
0.831800  982
0.831900  525
0.832000  341
0.832500  355
0.832800  961
0.832900  332
0.833600  542
0.834000  63
0.834200  358
0.834600  342
0.834700  379
0.835000  966
0.835200  407
0.836400  194
0.836400  929
0.836600  186
0.836600  584
0.836800  579
0.837000  13
0.837300  900
0.837700  916
0.837800  198
0.837800  522
0.837900  884
0.838000  991
0.838300  99
0.838300  702
0.838400  962
0.838500  663
0.838600  87
0.838600  152
0.838900  685
0.839200  125
0.839200  414
0.839300  113
0.839400  184
0.839600  197
0.839700  168
0.839900  24
0.840000  85
0.840300  20
0.840600  37
0.840800  172
0.841100  550
0.841100  657
0.841300  137
0.841500  596
0.841700  660
0.842000  465
0.842300  313
0.842400  392
0.842500  478
0.842800  188
0.842800  499
0.842900  995
0.843100  166
0.843100  529
0.843100  726
0.843400  662
0.843500  328
0.843700  32
0.843700  242
0.843800  229
0.844100  431
0.844200  643
0.844300  708
0.844300  760
0.844500  834
0.844600  605
0.844700  198
0.844700  801
0.844900  399
0.844900  467
0.845100  240
0.845300  2
0.845600  893
0.845800  963
0.846100  37
0.846700  291
0.846800  99
0.847100  483
0.847200  835
0.847500  713
0.847700  25
0.848000  417
0.848100  285
0.848100  848
0.848400  424
0.848500  672
0.848800  694
0.848900  503
0.848900  569
0.848900  965
0.849300  929
0.849600  862
0.850100  889
0.850400  132
0.850400  835
0.850500  525
0.850600  396
0.850800  266
0.851000  250
0.851700  313
0.852200  447
0.852400  113
0.852600  663
0.852600  856
0.853200  411
0.853400  199
0.853400  221
0.853600  425
0.853700  152
0.853700  174
0.853800  854
0.853900  733
0.853900  901
0.854100  912
0.854300  53
0.854700  619
0.854800  301
0.854800  778
0.855000  138
0.855000  829
0.855100  211
0.855100  374
0.855100  410
0.855400  464
0.855600  237
0.856000  564
0.856400  395
0.856500  41
0.856600  865
0.857000  51
0.857000  504
0.857300  978
0.859100  150
0.859300  431
0.859300  524
0.859300  929
0.859400  753
0.859500  988
0.859800  327
0.860400  492
0.860500  920
0.860700  457
0.861000  121
0.861000  881
0.861200  542
0.861300  781
0.861400  680
0.861500  796
0.861600  585
0.861900  571
0.862100  833
0.862200  164
0.862900  712
0.863000  867
0.863200  817
0.863300  493
0.863500  453
0.863500  490
0.863700  264
0.863800  961
0.863900  31
0.863900  285
0.863900  346
0.864900  191
0.865300  3
0.865900  801
0.865900  983
0.866100  38
0.866100  82
0.866300  416
0.866600  137
0.866800  924
0.866900  524
0.867200  85
0.867500  566
0.867700  855
0.867900  357
0.867900  990
0.868000  988
0.868200  116
0.868500  551
0.868600  25
0.868700  231
0.868700  604
0.868800  210
0.868800  552
0.868900  361
0.869100  122
0.869200  44
0.869300  773
0.869800  7
0.869800  161
0.869800  251
0.869900  77
0.870200  997
0.870800  37
0.870900  19
0.871000  244
0.871400  332
0.871600  398
0.871700  632
0.871700  658
0.871700  943
0.872600  531
0.872700  455
0.872800  437
0.872800  629
0.872900  276
0.873000  112
0.873200  596
0.873400  170
0.873400  224
0.873500  748
0.873600  51
0.873900  157
0.873900  334
0.873900  429
0.874700  332
0.874900  669
0.875000  794
0.875200  627
0.875500  71
0.876200  99
0.876200  427
0.876400  321
0.876500  237
0.876900  534
0.877000  771
0.877400  78
0.877800  411
0.877800  884
0.878000  116
0.878100  617
0.878200  536
0.878200  891
0.878200  982
0.878500  244
0.878600  317
0.878800  236
0.878800  303
0.878800  671
0.878800  750
0.879400  138
0.879400  999
0.879500  395
0.879600  758
0.879900  924
0.880100  452
0.880200  299
0.880200  532
0.880300  791
0.881000  924
0.881100  398
0.881500  745
0.881600  277
0.882000  842
0.882100  948
0.882200  505
0.882300  593
0.882500  753
0.882600  371
0.882700  270
0.882800  257
0.882900  267
0.883000  431
0.883200  336
0.883300  732
0.883400  996
0.883500  83
0.883500  960
0.883800  978
0.883900  100
0.884000  756
0.884100  861
0.884300  602
0.884400  577
0.884500  644
0.885100  25
0.885100  786
0.885100  884
0.885400  888
0.885600  166
0.885700  320
0.885700  764
0.885700  930
0.886300  910
0.886600  812
0.886800  543
0.887200  943
0.887500  661
0.887800  213
0.888000  855
0.888200  41
0.888200  509
0.888400  96
0.888500  40
0.888600  681
0.888800  325
0.888900  174
0.889800  271
0.889800  446
0.889800  518
0.890100  884
0.890100  962
0.890400  70
0.890700  121
0.890900  30
0.891500  402
0.891900  152
0.892000  422
0.892000  654
0.892000  754
0.892000  894
0.892100  82
0.892100  84
0.892200  158
0.892500  36
0.892700  421
0.893200  691
0.893400  909
0.893800  726
0.893800  942
0.893900  337
0.894000  757
0.894000  903
0.894400  967
0.894700  34
0.894900  820
0.894900  897
0.895200  466
0.895200  920
0.895700  103
0.895900  183
0.896000  723
0.896100  46
0.896100  222
0.896200  112
0.896200  917
0.896400  530
0.896900  780
0.897100  369
0.898100  777
0.898100  855
0.898400  428
0.898600  884
0.898800  913
0.898900  715
0.899000  221
0.899000  657
0.899000  725
0.899200  633
0.899400  529
0.899600  64
0.899600  816
0.899700  702
0.899700  713
0.899800  776
0.899900  363
0.899900  984
0.900000  889
0.900100  201
0.900600  302
0.900700  528
0.900900  787
0.900900  870
0.901000  52
0.901200  590
0.901500  799
0.902100  213
0.902100  554
0.902300  467
0.902400  191
0.902400  265
0.902600  274
0.902600  813
0.902800  86
0.903100  337
0.903200  560
0.903200  602
0.903300  276
0.903300  983
0.903500  305
0.903500  754
0.903900  788
0.904500  631
0.904600  145
0.904600  795
0.904800  597
0.905000  50
0.905000  126
0.905000  586
0.905300  107
0.905300  775
0.905600  446
0.905900  916
0.906200  113
0.906200  283
0.906300  400
0.906400  498
0.906400  721
0.906600  627
0.907000  99
0.907300  59
0.907500  608
0.907600  96
0.907700  180
0.907700  240
0.907800  818
0.907900  433
0.908100  42
0.908200  32
0.908200  428
0.908200  530
0.908200  689
0.908300  370
0.908400  833
0.908600  402
0.908700  152
0.908900  421
0.908900  865
0.909300  201
0.909400  516
0.909400  787
0.909700  234
0.909700  883
0.909800  782
0.909800  827
0.909900  899
0.910500  75
0.910500  283
0.910700  596
0.911300  494
0.911500  295
0.911500  484
0.911500  561
0.911600  815
0.911700  868
0.912600  180
0.912600  952
0.912900  83
0.913100  696
0.913200  342
0.913500  56
0.913600  490
0.913800  632
0.913800  673
0.914300  627
0.914500  350
0.914500  475
0.914700  713
0.914900  520
0.914900  913
0.915300  127
0.915400  331
0.915600  467
0.915700  232
0.916000  494
0.916000  927
0.916300  654
0.916400  451
0.916500  7
0.916600  731
0.916900  602
0.917300  765
0.917400  482
0.917500  571
0.917600  615
0.917600  832
0.918000  693
0.918200  434
0.918200  974
0.918300  162
0.918300  481
0.918400  854
0.918400  945
0.918500  899
0.918500  983
0.918600  349
0.918700  45
0.918800  189
0.919000  656
0.919500  451
0.920100  996
0.920200  35
0.920300  918
0.920600  725
0.920700  346
0.920800  30
0.920800  153
0.920900  519
0.921300  871
0.921500  345
0.921600  570
0.921900  392
0.922000  882
0.922100  534
0.922700  705
0.923200  70
0.923200  930
0.923200  950
0.923300  223
0.923300  559
0.923500  105
0.923600  358
0.923700  654
0.923900  368
0.924200  823
0.924500  324
0.924900  546
0.925000  926
0.925100  903
0.925200  160
0.925200  828
0.925500  410
0.925700  904
0.925900  289
0.926000  678
0.926300  579
0.926300  665
0.926500  840
0.927200  643
0.927500  962
0.927800  852
0.927800  872
0.928300  418
0.928400  537
0.928400  930
0.928500  552
0.928500  568
0.929000  209
0.929300  878
0.929500  888
0.929600  459
0.929600  687
0.929900  181
0.930400  125
0.930600  350
0.930900  948
0.931000  94
0.931100  33
0.931100  711
0.931200  659
0.931300  76
0.931300  429
0.931500  5
0.931500  139
0.931700  373
0.932100  278
0.932500  235
0.932700  934
0.932800  873
0.933000  573
0.933100  345
0.934500  364
0.934500  509
0.935000  833
0.935400  990
0.935700  961
0.935800  572
0.936000  36
0.936100  245
0.936400  6
0.936500  571
0.936500  835
0.936600  403
0.936800  656
0.936900  654
0.936900  811
0.937400  362
0.937400  414
0.937600  154
0.937700  752
0.937700  761
0.938000  726
0.938100  256
0.938300  721
0.938400  264
0.938400  771
0.938400  933
0.938700  528
0.938800  160
0.939000  93
0.939000  423
0.939100  897
0.939300  725
0.939400  832
0.939600  664
0.939600  672
0.939600  760
0.939900  681
0.940000  237
0.940200  318
0.940300  823
0.940600  496
0.940700  925
0.940900  963
0.941800  161
0.942200  751
0.942500  693
0.942700  738
0.942900  243
0.942900  481
0.943100  931
0.943400  349
0.943400  386
0.943600  365
0.944000  682
0.944000  797
0.944200  162
0.944200  796
0.945200  24
0.945300  345
0.945500  946
0.945600  451
0.945900  440
0.946300  629
0.946400  634
0.946600  168
0.946600  408
0.947000  679
0.947100  816
0.947400  725
0.947500  605
0.947900  511
0.948200  58
0.948400  92
0.948600  442
0.948800  369
0.948900  760
0.948900  869
0.949000  999
0.949300  662
0.949400  872
0.949600  372
0.949900  66
0.949900  485
0.950300  334
0.950300  742
0.950500  740
0.950600  315
0.950600  802
0.950900  293
0.951000  328
0.951100  735
0.951500  144
0.951800  506
0.952100  418
0.952400  757
0.952400  959
0.952600  620
0.952800  472
0.952900  79
0.952900  396
0.953000  679
0.953000  725
0.953000  966
0.953300  22
0.953300  393
0.954200  92
0.954900  1
0.954900  637
0.955000  767
0.955200  213
0.955300  205
0.955300  444
0.955300  523
0.955700  77
0.956400  602
0.956700  430
0.956800  696
0.957000  200
0.957300  372
0.957700  366
0.958300  217
0.958500  259
0.958600  323
0.959400  649
0.959500  165
0.959500  607
0.959600  118
0.960000  710
0.960700  704
0.960800  740
0.961000  539
0.961300  217
0.961900  442
0.962600  455
0.962900  245
0.963300  666
0.963600  958
0.963700  674
0.964000  747
0.964000  978
0.964300  141
0.964800  954
0.965100  519
0.965400  55
0.965400  132
0.965500  973
0.965800  59
0.965800  103
0.965800  327
0.965900  957
0.966300  376
0.966300  762
0.966400  302
0.966600  840
0.967200  423
0.967300  941
0.967500  483
0.967500  866
0.968600  269
0.968600  796
0.968700  217
0.969000  84
0.969000  186
0.969200  937
0.969900  636
0.970000  838
0.970000  975
0.970100  103
0.970100  616
0.970500  858
0.970700  908
0.970800  426
0.970800  618
0.970900  227
0.971100  661
0.971100  985
0.971300  772
0.971400  7
0.971800  680
0.971800  928
0.971900  769
0.971900  978
0.972700  18
0.972700  57
0.972800  505
0.973000  708
0.973100  470
0.973100  618
0.973200  12
0.973200  120
0.973500  916
0.973600  784
0.973700  349
0.973800  167
0.973800  827
0.974000  879
0.974200  41
0.974200  629
0.974300  703
0.974400  717
0.974900  505
0.974900  986
0.975100  7
0.975400  755
0.975600  683
0.975700  94
0.975700  379
0.975800  27
0.976000  350
0.976100  561
0.976200  663
0.976500  360
0.976700  64
0.977100  717
0.977100  982
0.977300  430
0.977600  172
0.978000  40
0.978500  122
0.978500  667
0.978600  246
0.978600  403
0.978800  173
0.978800  570
0.978900  629
0.979100  844
0.979900  114
0.980200  963
0.980300  62
0.981200  741
0.981300  3
0.981300  823
0.981400  767
0.981800  114
0.982600  260
0.982600  927
0.982800  873
0.982900  979
0.983000  22
0.983100  532
0.983200  300
0.983200  830
0.983600  483
0.983600  522
0.983800  73
0.984200  176
0.984200  244
0.984300  438
0.984400  691
0.984700  13
0.985400  422
0.986100  577
0.986200  534
0.986900  592
0.987200  202
0.987300  300
0.987700  929
0.988200  909
0.988400  728
0.989000  979
0.989200  144
0.989500  655
0.990300  800
0.990500  354
0.990600  518
0.990700  902
0.990900  244
0.990900  422
0.990900  884
0.991100  621
0.991300  340
0.991700  796
0.991800  980
0.992100  912
0.992200  509
0.992200  622
0.992200  840
0.992300  878
0.992500  813
0.992700  883
0.992800  900
0.992900  127
0.992900  856
0.993200  261
0.993800  542
0.993800  796
0.993900  241
0.994300  463
0.994500  412
0.994500  540
0.994600  341
0.994600  470
0.994700  973
0.995000  100
0.995000  807
0.995800  893
0.995900  539
0.996100  622
0.996400  927
0.996800  348
0.996900  173
0.997100  822
0.997200  144
0.997300  82
0.997500  974
0.997700  602
0.997800  156
0.997800  769
0.997900  681
0.998000  583
0.998000  675
0.998300  80
0.998500  773
0.998800  28
0.999100  767
0.999200  218
0.999400  547
0.999500  809
0.999800  519
